CH1;CH2;PPG
125.25616;115.49496;589.85443
125.26225;115.506165;589.8484
125.26159;115.51514;589.84985
125.260826;115.51604;589.843
125.25825;115.51073;589.83356
125.25468;115.51096;589.8351
125.25682;115.51446;589.8441
125.26484;115.520454;589.8547
125.27656;115.53619;589.8469
125.28579;115.54687;589.8411
125.29793;115.56291;589.835
125.30808;115.577194;589.82043
125.30646;115.578026;589.8188
125.30227;115.57779;589.81964
125.30694;115.58029;589.82117
125.32;115.58902;589.8218
125.32742;115.59856;589.82416
125.3262;115.60671;589.8263
125.32746;115.61606;589.83124
125.33907;115.63539;589.8367
125.35374;115.64896;589.84436
125.36196;115.65167;589.861
125.36237;115.65553;589.8643
125.364296;115.66078;589.8769
125.373886;115.67079;589.8855
125.38576;115.68844;589.89545
125.38754;115.69259;589.9092
125.386925;115.69874;589.9224
125.39718;115.71429;589.93964
125.39696;115.715256;589.95465
125.39575;115.71553;589.97046
125.40106;115.722534;589.9895
125.4106;115.73462;590.00885
125.423744;115.75429;590.02747
125.43287;115.768524;590.05054
125.43415;115.77818;590.07263
125.43475;115.78505;590.092
125.42937;115.782234;590.1124
125.42652;115.77992;590.13605
125.43129;115.78059;590.15784
125.43842;115.787025;590.1798
125.44839;115.80715;590.20435
125.44789;115.820946;590.2262
125.453926;115.827484;590.2466
125.46095;115.83402;590.2694
125.46193;115.83995;590.2911
125.46442;115.84179;590.31287
125.46327;115.83709;590.333
125.46055;115.83199;590.3529
125.46229;115.838524;590.3723
125.460075;115.83857;590.39355
125.45704;115.838806;590.41223
125.45733;115.8431;590.4314
125.45247;115.839355;590.45074
125.43962;115.8236;590.46783
125.42991;115.81163;590.48553
125.41399;115.79341;590.50116
125.40813;115.77713;590.5179
125.405594;115.773125;590.53436
125.39672;115.76471;590.54877
125.394844;115.76006;590.5627
125.39958;115.75705;590.57574
125.38898;115.73741;590.58905
125.37238;115.71483;590.6033
125.3669;115.698906;590.6138
125.361244;115.684006;590.6232
125.356834;115.67043;590.6326
125.357704;115.66572;590.6426
125.34709;115.652435;590.65155
125.331474;115.63048;590.65875
125.32966;115.61787;590.66534
125.316734;115.59245;590.6722
125.29919;115.566895;590.68115
125.286415;115.54327;590.69855
125.282074;115.529106;590.7026
125.27048;115.51046;590.6992
125.264046;115.495865;590.7039
125.267975;115.492195;590.70416
125.26714;115.486786;590.7054
125.2635;115.47064;590.7065
125.248116;115.44285;590.7087
125.240555;115.423744;590.70886
125.24266;115.415596;590.71027
125.24394;115.41142;590.71246
125.24239;115.405106;590.71265
125.24326;115.395164;590.71625
125.23827;115.38748;590.72345
125.2311;115.38011;590.71875
125.232216;115.3728;590.71375
125.23465;115.36524;590.7173
125.233406;115.36071;590.7286
125.229355;115.35877;590.72815
125.224686;115.36021;590.7258
125.228905;115.362755;590.723
125.230644;115.36209;590.72534
125.23186;115.35756;590.7197
125.22969;115.34431;590.7162
125.22903;115.3391;590.7107
125.22039;115.32657;590.7057
125.21552;115.322495;590.7095
125.21438;115.32623;590.7021
125.216835;115.32614;590.7007
125.22061;115.33;590.7023
125.2213;115.331116;590.70105
125.2146;115.32106;590.7056
125.21128;115.31066;590.70465
125.20926;115.30797;590.70087
125.19859;115.29981;590.6953
125.20191;115.30227;590.6977
125.1981;115.29991;590.7032
125.19185;115.29695;590.697
125.18727;115.29402;590.6931
125.17347;115.27788;590.69324
125.16546;115.26248;590.6856
125.15511;115.25385;590.69086
125.152275;115.25409;590.6987
125.155495;115.25647;590.6888
125.15206;115.25359;590.6838
125.15507;115.261055;590.6917
125.15485;115.26367;590.68713
125.14403;115.25621;590.68494
125.132126;115.23861;590.6837
125.12564;115.22963;590.68225
125.11537;115.21773;590.68475
125.10118;115.210556;590.69226
125.09298;115.2101;590.6962
125.08726;115.20516;590.6992
125.08068;115.19997;590.6808
125.07565;115.197105;590.682
125.068214;115.18684;590.6861
125.080154;115.18876;590.6835
125.07748;115.18342;590.6948
125.07319;115.18182;590.6987
125.06845;115.18519;590.6921
125.06759;115.18678;590.6861
125.06623;115.18697;590.67926
125.05929;115.1819;590.67993
125.05123;115.16962;590.679
125.04478;115.162895;590.6751
125.03662;115.152336;590.6692
125.03652;115.14616;590.6725
125.04031;115.14718;590.6706
125.04248;115.14833;590.67084
125.04277;115.152336;590.6721
125.045654;115.16168;590.6683
125.0473;115.163795;590.6603
125.04301;115.15395;590.6566
125.04301;115.15043;590.66296
125.04003;115.1462;590.6696
125.040215;115.14906;590.6691
125.043655;115.15545;590.6482
125.04461;115.154144;590.6455
125.040764;115.15491;590.6427
125.040985;115.15567;590.638
125.03883;115.14787;590.63715
125.036285;115.14413;590.6393
125.036354;115.14334;590.6471
125.0339;115.1432;590.6403
125.03366;115.14704;590.63025
125.03304;115.14714;590.6196
125.03521;115.15061;590.6174
125.03242;115.14792;590.6168
125.02596;115.13874;590.613
125.02126;115.127914;590.61163
125.02215;115.12476;590.6157
125.02162;115.124504;590.6153
125.02222;115.12775;590.6131
125.02169;115.12723;590.60693
125.02515;115.131996;590.60486
125.025345;115.13433;590.60486
125.027534;115.13245;590.6007
125.0261;115.125084;590.60004
125.025024;115.11812;590.5997
125.03146;115.12081;590.6005
125.03235;115.12456;590.6104
125.0387;115.13481;590.6136
125.04267;115.13509;590.6041
125.04289;115.13972;590.60736
125.04434;115.144875;590.6078
125.0504;115.14353;590.61035
125.055885;115.145676;590.6121
125.059814;115.14523;590.614
125.06282;115.1453;590.607
125.06907;115.153595;590.60614
125.07724;115.15998;590.6091
125.08213;115.16431;590.6108
125.076866;115.16313;590.6134
125.07553;115.15751;590.6134
125.07658;115.152405;590.61523
125.08027;115.15014;590.619
125.08094;115.14806;590.6218
125.08094;115.15152;590.6249
125.08582;115.160576;590.6288
125.09117;115.16714;590.6303
125.10328;115.17708;590.6323
125.107925;115.181274;590.6349
125.106804;115.17837;590.6382
125.1044;115.17219;590.641
125.098915;115.16228;590.6421
125.096725;115.15886;590.6443
125.09856;115.16032;590.6486
125.10054;115.166115;590.6512
125.10226;115.17178;590.6541
125.11079;115.17694;590.65576
125.115746;115.171;590.65643
125.118774;115.17057;590.6586
125.112885;115.16952;590.6614
125.11332;115.175125;590.66235
125.121445;115.1828;590.6675
125.12693;115.187096;590.6694
125.128296;115.18726;590.67505
125.13211;115.196205;590.6786
125.13236;115.19455;590.67175
125.12417;115.182465;590.6725
125.11913;115.17546;590.6742
125.12295;115.178085;590.6859
125.12664;115.18052;590.6911
125.13904;115.19527;590.68915
125.145836;115.19983;590.6808
125.153206;115.20221;590.6728
125.14459;115.19579;590.67523
125.1355;115.18583;590.6746
125.12646;115.175125;590.67395
125.11651;115.16737;590.67194
125.11506;115.16945;590.67487
125.111725;115.17284;590.6765
125.112335;115.17851;590.67645
125.11358;115.18066;590.67456
125.11232;115.17386;590.6704
125.11523;115.165085;590.66907
125.10979;115.15751;590.6696
125.11084;115.156166;590.6647
125.11513;115.16177;590.6633
125.11988;115.16909;590.6602
125.1225;115.17817;590.6584
125.12271;115.18392;590.6569
125.11627;115.18149;590.6542
125.109665;115.1736;590.6518
125.10614;115.16518;590.6505
125.10411;115.15796;590.64886
125.106544;115.15942;590.6443
125.10724;115.16337;590.643
125.102875;115.16244;590.6413
125.096275;115.156166;590.63745
125.088425;115.15224;590.6363
125.080795;115.14217;590.6335
125.07698;115.13268;590.6301
125.075554;115.12742;590.62683
125.068855;115.119095;590.6232
125.07007;115.11972;590.6233
125.07069;115.123505;590.625
125.072624;115.12679;590.6176
125.084564;115.14132;590.6146
125.09174;115.147705;590.6114
125.08545;115.13886;590.6082
125.08635;115.13808;590.6053
125.090675;115.14031;590.6038
125.09953;115.14554;590.6066
125.09987;115.15014;590.58954
125.09582;115.14627;590.5834
125.09842;115.15159;590.5791
125.102066;115.15278;590.57605
125.08938;115.13631;590.57324
125.08147;115.12505;590.5692
125.07984;115.11871;590.56573
125.07879;115.11664;590.56415
125.08388;115.12856;590.55927
125.08719;115.13219;590.5555
125.086945;115.13323;590.5536
125.09079;115.13867;590.54767
125.10357;115.14489;590.5451
125.10345;115.141556;590.54364
125.10164;115.13953;590.5434
125.09789;115.13817;590.5415
125.09735;115.14728;590.54535
125.10736;115.16163;590.56104
125.11913;115.17188;590.55585
125.13003;115.18576;590.5264
125.1364;115.195915;590.5164
125.143166;115.20111;590.515
125.143906;115.199234;590.51294
125.15171;115.196815;590.5067
125.14701;115.19687;590.5174
125.14827;115.21022;590.52045
125.149414;115.21683;590.50916
125.15306;115.22958;590.4979
125.15066;115.23127;590.48785
125.142685;115.21703;590.49255
125.13116;115.20624;590.4913
125.13384;115.208176;590.4788
125.13611;115.20848;590.47064
125.13943;115.20765;590.4712
125.13952;115.20476;590.4726
125.14376;115.20174;590.4734
125.133705;115.18776;590.4678
125.124;115.172806;590.4653
125.12128;115.15806;590.45465
125.123;115.152115;590.4559
125.12777;115.15307;590.4481
125.12739;115.1561;590.4396
125.116394;115.14847;590.43616
125.11673;115.15004;590.4323
125.12481;115.159454;590.4291
125.11952;115.15376;590.431
125.109;115.141556;590.42737
125.10357;115.13466;590.4224
125.0895;115.11824;590.4179
125.07963;115.10608;590.41187
125.08296;115.10324;590.4107
125.07532;115.09358;590.4091
125.067375;115.08992;590.40625
125.060486;115.09411;590.40137
125.05527;115.096085;590.3978
125.04272;115.0829;590.3964
125.0317;115.06929;590.3979
125.02722;115.0608;590.399
125.03156;115.067474;590.39575
125.03862;115.07754;590.3839
125.04444;115.089035;590.3838
125.0513;115.10021;590.38153
125.0447;115.091484;590.37604
125.033424;115.07539;590.37164
125.02364;115.06497;590.37524
125.02656;115.0654;590.3842
125.024;115.06247;590.3971
125.0278;115.06588;590.3966
125.028755;115.07158;590.3752
125.03504;115.07795;590.3615
125.040886;115.08665;590.36615
125.03063;115.07657;590.36835
125.022644;115.0658;590.3552
125.014656;115.06;590.35535
125.022385;115.06781;590.34357
125.02573;115.073296;590.3372
125.02169;115.07665;590.33704
125.018;115.082664;590.33484
125.01607;115.08188;590.32794
125.01149;115.07606;590.32434
125.00665;115.067215;590.32153
125.00429;115.05911;590.319
124.99947;115.04924;590.3176
124.99771;115.04852;590.31506
124.990845;115.04426;590.3097
124.9849;115.03975;590.3076
124.9839;115.039375;590.3065
124.97266;115.025826;590.30347
124.96123;115.01393;590.3005
124.95448;115.00804;590.29767
124.94547;114.997025;590.29535
124.94008;114.99431;590.29474
124.93553;115.002556;590.2928
124.9229;115.00358;590.2937
124.91531;114.992424;590.28986
124.905205;114.97121;590.2913
124.88189;114.94023;590.2833
124.864555;114.921715;590.27844
124.860596;114.91882;590.2755
124.88005;114.92589;590.2738
124.9113;114.93592;590.2709
124.94873;114.95862;590.26965
125.001;115.01216;590.26764
125.05576;115.09329;590.26385
125.10788;115.209076;590.2604
125.15149;115.373604;590.25995
125.17909;115.543884;590.2593
125.205185;115.73079;590.2612
125.25186;115.92075;590.2562
125.29396;116.10214;590.25336
125.309395;116.26174;590.25305
125.337074;116.42868;590.25055
125.34771;116.55328;590.2482
125.28622;116.63303;590.252
125.210686;116.67685;590.25183
125.16705;116.68908;590.2445
125.13344;116.65074;590.2445
125.10979;116.472595;590.2408
125.081055;116.15502;590.2385
125.037094;115.833305;590.23267
125.00009;115.53227;590.23114
124.96259;115.2687;590.23456
124.90685;115.08924;590.23206
124.87964;115.01509;590.2276
124.8831;115.02952;590.2301
124.90389;115.056915;590.23517
124.929115;115.04387;590.2272
124.97237;115.04807;590.2293
125.027885;115.07325;590.2084
125.056145;115.08016;590.2063
125.058525;115.07873;590.2054
125.0572;115.097824;590.20074
125.05376;115.115395;590.1988
125.05858;115.13941;590.19727
125.051575;115.14642;590.19434
125.047134;115.159744;590.1932
125.04389;115.170784;590.1932
125.028465;115.173004;590.19257
125.015686;115.17105;590.1897
125.02067;115.17784;590.1915
125.02632;115.18258;590.20215
125.02613;115.17744;590.1952
125.01724;115.169044;590.1819
125.026695;115.17474;590.1787
125.03607;115.18566;590.1777
125.038124;115.18501;590.1692
125.03104;115.17076;590.16876
125.02541;115.16172;590.16547
125.0169;115.15429;590.16406
125.02508;115.1648;590.16595
125.02908;115.17209;590.16675
125.03216;115.17858;590.16736
125.03166;115.18197;590.15796
125.02982;115.18399;590.16144
125.02479;115.17444;590.1561
125.03354;115.17837;590.14343
125.04168;115.17948;590.1469
125.040695;115.17763;590.1485
125.0442;115.183136;590.1471
125.04653;115.19315;590.1439
125.043076;115.19539;590.138
125.03652;115.19312;590.1304
125.040504;115.1955;590.1278
125.031395;115.18631;590.11835
125.024124;115.174286;590.1162
125.03007;115.17863;590.11115
125.04406;115.194725;590.1077
125.04895;115.20295;590.107
125.056244;115.21272;590.1074
125.057144;115.21545;590.0962
125.05462;115.21516;590.09155
125.047516;115.209694;590.09326
125.055336;115.21458;590.0896
125.064156;115.21806;590.0867
125.06981;115.22631;590.08765
125.07923;115.24147;590.0784
125.08814;115.25297;590.0786
125.09119;115.25923;590.06683
125.08759;115.26446;590.07
125.081566;115.2601;590.0634
125.07796;115.25011;590.05554
125.06654;115.23897;590.0525
125.063774;115.238235;590.0452
125.06726;115.2411;590.0404
125.070854;115.248825;590.041
125.07923;115.265175;590.0526
125.08993;115.279175;590.03705
125.093124;115.28377;590.0241
125.08726;115.27679;590.0212
125.07954;115.26575;590.01697
125.08046;115.26668;590.01404
125.083374;115.27469;590.01
125.07882;115.28191;590.0066
125.07937;115.28878;590.0078
125.085205;115.29707;590.0025
125.08545;115.300865;589.99365
125.08666;115.29762;589.99194
125.07894;115.29426;589.996
125.08535;115.29796;589.9928
125.09107;115.29891;589.98566
125.09224;115.305466;589.9799
125.107;115.322464;589.9724
125.1137;115.33193;589.96533
125.11608;115.332054;589.9643
125.11587;115.33224;589.96704
125.11765;115.3389;589.96875
125.11799;115.340324;589.9787
125.12092;115.34719;589.9824
125.12269;115.35387;589.96344
125.13725;115.37054;589.9645
125.15048;115.38748;589.9464
125.156685;115.39648;589.9447
125.15854;115.398735;589.9343
125.158714;115.3907;589.9272
125.16856;115.39397;589.9269
125.17063;115.39852;589.9267
125.17152;115.4055;589.9312
125.17579;115.415924;589.9271
125.180885;115.42272;589.92883
125.18575;115.42943;589.9295
125.18632;115.429276;589.9035
125.19066;115.430466;589.9031
125.18983;115.43166;589.9012
125.18802;115.42947;589.90247
125.19164;115.436615;589.9012
125.206825;115.45572;589.90204
125.2114;115.47074;589.9029
125.21651;115.482254;589.90784
125.22087;115.49515;589.9096
125.2272;115.49443;589.91364
125.23434;115.49491;589.9203
125.247856;115.5055;589.92816
125.26061;115.52236;589.9334
125.25909;115.53053;589.94434
125.26379;115.5384;589.959
125.27933;115.555565;589.9718
125.29122;115.568565;589.98376
125.284836;115.568275;589.9975
125.2881;115.5765;590.0267
125.29392;115.58149;590.0242
125.292206;115.577484;590.0282
125.296326;115.58463;590.0477
125.30963;115.61071;590.0687
125.31037;115.61935;590.08246
125.31302;115.629715;590.1093
125.3169;115.63673;590.11707
125.31888;115.63997;590.1331
125.32542;115.64276;590.1507
125.32727;115.63985;590.1713
125.323746;115.64111;590.1927
125.337234;115.65763;590.2115
125.34263;115.66989;590.23285
125.34587;115.675446;590.2527
125.347755;115.6775;590.2747
125.34808;115.678665;590.2941
125.34582;115.67709;590.3143
125.33924;115.67246;590.3345
125.33585;115.67335;590.35474
125.33722;115.68205;590.3754
125.33736;115.68765;590.3955
125.33533;115.68796;590.4151
125.32468;115.678215;590.43317
125.31201;115.66471;590.45135
125.28955;115.64182;590.469
125.27332;115.619606;590.48596
125.26889;115.6042;590.50183
125.25877;115.59259;590.51874
125.24776;115.58089;590.5346
125.230865;115.56284;590.55066
125.225044;115.56119;590.56396
125.2238;115.55378;590.579
125.21298;115.53149;590.5936
125.19905;115.50347;590.6051
125.18892;115.4837;590.6172
125.186516;115.4756;590.6271
125.189445;115.474556;590.6348
125.18279;115.462326;590.6446
125.17247;115.445465;590.65717
125.165985;115.428375;590.66534
125.15745;115.40875;590.6713
125.14507;115.38722;590.6784
125.128624;115.364716;590.685
125.12298;115.347855;590.69196
125.121666;115.34216;590.6964
125.11496;115.32979;590.70245
125.10571;115.31293;590.70544
125.10347;115.30415;590.7092
125.0966;115.28656;590.7122
125.08766;115.26179;590.7159
125.0793;115.24183;590.71686
125.08001;115.242714;590.71796
125.078125;115.24307;590.7198
125.065895;115.22736;590.72217
125.064156;115.221016;590.721
125.06924;115.22076;590.7211
125.064606;115.21499;590.7213
125.05326;115.19704;590.7211
125.03795;115.17982;590.7191
125.031586;115.16637;590.7206
125.03032;115.16053;590.7192
125.02639;115.15958;590.71814
125.02741;115.15502;590.7173
125.03056;115.15629;590.7158
125.03643;115.1601;590.7134
125.02961;115.15372;590.7134
125.02637;115.14704;590.7165
125.01881;115.13323;590.7209
125.023575;115.13936;590.7163
125.03688;115.15198;590.7122
125.03831;115.15372;590.71484
125.038666;115.153786;590.7128
125.037766;115.15543;590.6994
125.031204;115.147514;590.69336
125.02222;115.13512;590.69385
125.01311;115.1231;590.6906
125.01855;115.126366;590.6831
125.0401;115.14482;590.68054
125.03974;115.146965;590.6791
125.041435;115.15319;590.67816
125.04349;115.15491;590.6824
125.04577;115.15686;590.68396
125.040794;115.14675;590.6854
125.0283;115.13445;590.6721
125.0247;115.12713;590.6633
125.02916;115.1298;590.66345
125.028824;115.135254;590.65735
125.03445;115.1412;590.65076
125.026436;115.1406;590.64825
125.03032;115.14518;590.64655
125.03075;115.13958;590.643
125.02586;115.13316;590.6396
125.025604;115.12975;590.63806
125.03567;115.135666;590.6349
125.0441;115.1529;590.63495
125.04425;115.15362;590.63245
125.04534;115.15431;590.62756
125.0472;115.16156;590.62494
125.04837;115.163895;590.62195
125.0473;115.15741;590.6168
125.05145;115.157005;590.61255
125.04947;115.15438;590.61053
125.051544;115.15814;590.6063
125.05779;115.16422;590.6034
125.06447;115.17362;590.60095
125.062675;115.17715;590.59656
125.07283;115.18585;590.59143
125.07188;115.17918;590.5874
125.065796;115.17185;590.58417
125.06651;115.169754;590.57947
125.067085;115.17188;590.5771
125.07128;115.18168;590.5728
125.08199;115.19208;590.5656
125.088684;115.19861;590.5602
125.09241;115.198296;590.55756
125.08249;115.18382;590.555
125.08802;115.186516;590.55005
125.09631;115.189644;590.55096
125.09648;115.18767;590.5527
125.0975;115.189835;590.5409
125.10476;115.194534;590.5451
125.10643;115.19377;590.539
125.10774;115.19244;590.5271
125.102875;115.186356;590.5242
125.09148;115.17296;590.52026
125.081055;115.16103;590.5198
125.07581;115.15276;590.5232
125.07746;115.15698;590.5221
125.07967;115.16594;590.5206
125.07615;115.16836;590.5208
125.073166;115.168495;590.5151
125.07506;115.16923;590.51373
125.066376;115.15961;590.51025
125.06099;115.148964;590.50854
125.069016;115.142555;590.50586
125.0668;115.13762;590.5037
125.069595;115.14315;590.505
125.06985;115.14518;590.5063
125.071785;115.14885;590.50946
125.06816;115.1458;590.5041
125.06484;115.14012;590.5046
125.07315;115.144005;590.5202
125.075745;115.14413;590.53046
125.0827;115.14792;590.52875
125.08344;115.1499;590.5286
125.08581;115.15581;590.516
125.0826;115.15695;590.52045
125.0777;115.15648;590.5191
125.06787;115.14375;590.51984
125.07138;115.13798;590.5226
125.08046;115.14315;590.52673
125.07513;115.14175;590.5369
125.08122;115.14997;590.54425
125.08841;115.15901;590.55707
125.092735;115.16306;590.5607
125.09667;115.16029;590.5436
125.10245;115.15688;590.55396
125.100655;115.149254;590.5614
125.10462;115.15472;590.56537
125.10478;115.15181;590.5641
125.09963;115.14916;590.5756
125.102516;115.15524;590.5827
125.10476;115.16005;590.5743
125.10917;115.16521;590.5863
125.10502;115.158264;590.5937
125.09839;115.15205;590.5926
125.090355;115.13991;590.5922
125.09301;115.13166;590.59534
125.09131;115.12973;590.5908
125.08928;115.13304;590.5973
125.09887;115.14193;590.5967
125.10321;115.145134;590.6037
125.11;115.15202;590.6044
125.106445;115.149185;590.60486
125.100876;115.14268;590.6058
125.09851;115.13507;590.60785
125.1023;115.13683;590.6129
125.10237;115.140175;590.61755
125.10397;115.14823;590.61804
125.106;115.153015;590.61993
125.11654;115.158195;590.6205
125.11084;115.150085;590.6203
125.10418;115.14544;590.62177
125.10898;115.14353;590.62665
125.10423;115.13991;590.6273
125.111694;115.14883;590.6253
125.11186;115.15865;590.6249
125.113174;115.16431;590.62537
125.12698;115.17575;590.6227
125.12872;115.17803;590.6209
125.12357;115.16826;590.6214
125.11799;115.153595;590.62195
125.11222;115.14482;590.6212
125.10955;115.14334;590.619
125.11501;115.15188;590.6207
125.111336;115.15173;590.6186
125.10919;115.14828;590.61444
125.113365;115.143105;590.61505
125.11008;115.13383;590.6155
125.1049;115.12815;590.6138
125.11098;115.1283;590.6106
125.10418;115.12396;590.61145
125.08996;115.11943;590.61615
125.0824;115.11795;590.6021
125.08504;115.1226;590.5961
125.08969;115.12815;590.593
125.10101;115.14149;590.5926
125.096436;115.13379;590.59125
125.09119;115.12551;590.5889
125.09026;115.11867;590.5851
125.0844;115.11604;590.58093
125.088974;115.12312;590.57574
125.09112;115.12505;590.57306
125.09715;115.12827;590.5692
125.09631;115.1219;590.5642
125.08349;115.10448;590.55865
125.089874;115.10276;590.5536
125.08931;115.09917;590.55493
125.08197;115.09773;590.55164
125.08295;115.10533;590.5481
125.085396;115.10942;590.54407
125.08885;115.114;590.53705
125.09091;115.11235;590.53394
125.074265;115.09292;590.53204
125.06826;115.089645;590.5306
125.07753;115.097855;590.52484
125.080795;115.10102;590.52045
125.08104;115.10455;590.52356
125.08849;115.113304;590.5133
125.10135;115.12129;590.5108
125.11305;115.13343;590.51337
125.11479;115.13404;590.5009
125.11833;115.13447;590.4978
125.11341;115.132324;590.48975
125.11269;115.14027;590.4855
125.11883;115.15337;590.4838
125.12111;115.16485;590.4769
125.12095;115.17386;590.4713
125.12314;115.183975;590.4691
125.11269;115.17851;590.4682
125.10516;115.16666;590.4705
125.09994;115.15007;590.4595
125.095795;115.139694;590.4518
125.09708;115.13541;590.44946
125.09611;115.12684;590.4451
125.089264;115.11285;590.4383
125.10404;115.11647;590.4323
125.11022;115.11821;590.4301
125.11249;115.11282;590.4264
125.099754;115.10434;590.42346
125.101204;115.10214;590.41986
125.100464;115.09525;590.4173
125.0951;115.0913;590.41583
125.09956;115.100685;590.41406
125.09778;115.104836;590.4078
125.10081;115.10691;590.4027
125.09489;115.09788;590.41
125.08296;115.08302;590.40344
125.07486;115.07134;590.3966
125.07388;115.0654;590.3919
125.07836;115.06724;590.3992
125.07662;115.074486;590.3973
125.07128;115.08102;590.3866
125.079865;115.09292;590.37714
125.085396;115.10104;590.36664
125.089806;115.097565;590.3634
125.08364;115.09063;590.35913
125.0793;115.086006;590.3561
125.080696;115.090294;590.3579
125.08707;115.10699;590.35626
125.08563;115.11111;590.3494
125.086945;115.11166;590.34906
125.082726;115.11015;590.3408
125.07741;115.10358;590.3369
125.070885;115.09311;590.3433
125.06518;115.08173;590.3451
125.071976;115.08536;590.3432
125.070854;115.08944;590.35205
125.06935;115.09313;590.3454
125.07994;115.10109;590.3211
125.08118;115.10967;590.3123
125.07402;115.09971;590.3113
125.063156;115.08772;590.30914
125.05903;115.08297;590.30286
125.061554;115.08095;590.2979
125.06053;115.0804;590.297
125.06144;115.091606;590.29584
125.061745;115.096375;590.2924
125.05832;115.09311;590.28754
125.04849;115.08095;590.284
125.03366;115.06294;590.28076
125.03204;115.059944;590.2776
125.03221;115.05291;590.2745
125.03228;115.05436;590.2735
125.02613;115.05537;590.2725
125.01683;115.05174;590.27155
125.015335;115.048355;590.26685
125.021736;115.05067;590.26654
125.01714;115.04166;590.2698
125.009514;115.02866;590.258
124.99354;115.01979;590.2562
124.97809;115.00911;590.2533
124.97405;115.00012;590.258
124.97413;114.99245;590.2524
124.97191;114.98844;590.2462
124.97172;114.988556;590.243
124.989075;114.98823;590.24426
125.00708;114.9851;590.25507
125.03771;114.99864;590.2624
125.078674;115.04714;590.2544
125.12843;115.12677;590.2411
125.179504;115.22577;590.22925
125.22554;115.37609;590.2306
125.25973;115.55943;590.22076
125.26998;115.72449;590.2173
125.278465;115.893524;590.2134
125.31993;116.08712;590.21295
125.33998;116.258644;590.2129
125.357414;116.41309;590.2121
125.3848;116.5704;590.21063
125.38061;116.68601;590.2088
125.31414;116.75117;590.2067
125.2582;116.77632;590.2014
125.22833;116.777176;590.2011
125.208015;116.715256;590.203
125.19674;116.504;590.2022
125.17383;116.18308;590.2087
125.13816;115.89398;590.21405
125.10585;115.61367;590.2052
125.05197;115.3618;590.1962
125.00469;115.182014;590.1889
124.98032;115.09798;590.1854
124.97398;115.09198;590.17944
124.972435;115.079926;590.1786
124.99423;115.06174;590.17755
125.03361;115.0598;590.17566
125.076126;115.08333;590.1748
125.10054;115.09745;590.1802
125.11527;115.116165;590.1819
125.11873;115.14157;590.1713
125.10784;115.149254;590.16925
125.08933;115.144585;590.1675
125.08877;115.15169;590.1714
125.07394;115.15107;590.1726
125.057434;115.15889;590.1735
125.041885;115.15898;590.1585
125.03061;115.15958;590.1527
125.0317;115.16768;590.15125
125.023674;115.16106;590.14795
125.01804;115.151634;590.1465
125.01232;115.13936;590.1434
125.01378;115.13178;590.1417
125.020355;115.13748;590.1416
125.02244;115.138504;590.13983
125.025345;115.14446;590.13654
125.02288;115.144035;590.13544
125.0168;115.136665;590.13226
125.011246;115.12787;590.12885
125.007385;115.118904;590.1278
125.01213;115.12207;590.12695
125.018974;115.127914;590.1267
125.02191;115.134285;590.126
125.032585;115.153015;590.1263
125.039215;115.16051;590.11804
125.04165;115.16847;590.1164
125.048065;115.172005;590.1185
125.04504;115.16945;590.1151
125.04599;115.17332;590.1093
125.05547;115.18144;590.1168
125.06385;115.192116;590.1134
125.06733;115.19632;590.0963
125.06985;115.19698;590.09424
125.07756;115.208954;590.0949
125.083725;115.21337;590.09644
125.091354;115.21563;590.09973
125.09515;115.21928;590.0897
125.084595;115.214226;590.096
125.09171;115.22135;590.1143
125.099014;115.22991;590.0881
125.102974;115.238045;590.08014
125.107;115.24414;590.0767
125.10671;115.2446;590.06824
125.10578;115.2399;590.0647
125.10983;115.24038;590.074
125.10707;115.24004;590.0703
125.11191;115.2467;590.0538
125.112335;115.25213;590.052
125.114006;115.26119;590.0477
125.118965;115.26844;590.0418
125.11794;115.26965;590.02954
125.1059;115.26027;590.0282
125.10483;115.25583;590.02435
125.100586;115.25068;590.0195
125.09637;115.252655;590.01404
125.10025;115.257164;590.01166
125.10125;115.25419;590.00757
125.11113;115.26653;590.0028
125.10912;115.27261;589.99945
125.11332;115.277145;589.99713
125.1111;115.27023;589.9937
125.10237;115.25979;589.98987
125.102516;115.257904;589.9869
125.10686;115.26679;589.98505
125.098015;115.2678;589.9855
125.097435;115.271355;589.9827
125.111626;115.288826;589.97504
125.1137;115.28925;589.96924
125.102615;115.279526;589.9658
125.102875;115.27554;589.9656
125.10135;115.269684;589.9585
125.10142;115.27369;589.95825
125.10335;115.284195;589.9491
125.11203;115.298294;589.9451
125.11527;115.30368;589.943
125.11668;115.30332;589.94305
125.11623;115.304276;589.9411
125.11191;115.303085;589.9415
125.1136;115.30201;589.9331
125.11196;115.30373;589.928
125.11692;115.313286;589.92737
125.12021;115.32132;589.9388
125.13077;115.33665;589.9235
125.13731;115.35095;589.90784
125.141975;115.351074;589.9085
125.1477;115.34862;589.9112
125.14304;115.345856;589.907
125.14579;115.35296;589.8994
125.156136;115.36565;589.8949
125.159904;115.36741;589.8913
125.162766;115.373726;589.89294
125.168655;115.38541;589.8975
125.17329;115.39385;589.89075
125.185684;115.40198;589.9014
125.18795;115.40375;589.90186
125.19252;115.41294;589.8982
125.19645;115.42677;589.90765
125.20571;115.44025;589.9164
125.218864;115.45371;589.9174
125.225044;115.46574;589.91046
125.22893;115.474815;589.9231
125.21508;115.46397;589.9398
125.22278;115.46924;589.9292
125.22988;115.47624;589.9307
125.23913;115.48399;589.95013
125.24595;115.494514;589.96893
125.25009;115.50478;589.98627
125.26198;115.52076;589.9897
125.28057;115.53621;589.9873
125.28708;115.539116;590.00507
125.28553;115.54148;590.02075
125.30254;115.56141;590.03845
125.31571;115.577385;590.05347
125.33173;115.600105;590.07086
125.34296;115.618866;590.08844
125.355286;115.63628;590.10754
125.36356;115.64533;590.1261
125.358315;115.642426;590.1475
125.359795;115.647934;590.167
125.359764;115.65623;590.1867
125.36065;115.6578;590.20685
125.36692;115.66531;590.22546
125.371124;115.66984;590.24664
125.38073;115.68246;590.2683
125.38993;115.69177;590.28613
125.39442;115.69957;590.3072
125.38526;115.68806;590.32715
125.37577;115.678734;590.3463
125.369286;115.66967;590.36725
125.36709;115.66193;590.3845
125.3653;115.66591;590.40375
125.36094;115.66305;590.42255
125.35505;115.65974;590.44214
125.35035;115.65375;590.46014
125.34337;115.64097;590.47644
125.33743;115.62865;590.4942
125.32858;115.61989;590.5093
125.32434;115.60654;590.5248
125.3246;115.6018;590.5402
125.31125;115.58651;590.55457
125.29931;115.56589;590.56915
125.29001;115.549965;590.5821
125.27499;115.52827;590.5929
125.26086;115.50364;590.60394
125.24929;115.48054;590.6165
125.2489;115.46361;590.6263
125.24366;115.45145;590.6367
125.240875;115.44523;590.6457
125.24216;115.442696;590.6532
125.228004;115.427345;590.66113
125.221176;115.414375;590.6685
125.218056;115.39613;590.6767
125.213;115.37504;590.68164
125.202965;115.35236;590.68726
125.1928;115.34058;590.6945
125.19512;115.33985;590.6985
125.198166;115.33367;590.7023
125.200745;115.331955;590.7017
125.2007;115.326515;590.7027
125.18386;115.30513;590.7073
125.18057;115.29247;590.7123
125.177216;115.281364;590.71704
125.17371;115.274185;590.71545
125.18446;115.280266;590.71765
125.192444;115.28327;590.7173
125.195335;115.281815;590.7179
125.19106;115.2708;590.71796
125.18131;115.25757;590.7139
125.18289;115.25506;590.71826
125.18592;115.25213;590.71124
125.17833;115.24162;590.7196
125.16794;115.234276;590.71606
125.17165;115.243835;590.7095
125.18542;115.24617;590.7179
125.18873;115.24377;590.7107
125.181786;115.2374;590.69556
125.174515;115.22565;590.6962
125.16472;115.21868;590.6943
125.159454;115.22147;590.6938
125.16589;115.2275;590.6907
125.177185;115.230865;590.6863
125.17201;115.23084;590.6871
125.16835;115.2318;590.68524
125.16816;115.22958;590.682
125.16677;115.222595;590.6803
125.16145;115.21594;590.68207
125.15048;115.209076;590.67615
125.147896;115.20779;590.66956
125.15447;115.21666;590.67487
125.16324;115.224815;590.67865
125.16641;115.223145;590.658
125.16038;115.2172;590.65875
125.153755;115.21232;590.6586
125.15776;115.21368;590.6605
125.162315;115.21315;590.65497
125.16365;115.2046;590.65436
125.16567;115.2071;590.65027
125.161026;115.21189;590.6374
125.16566;115.22298;590.6351
125.17027;115.23144;590.6323
125.17771;115.2359;590.62836
125.181885;115.234535;590.6246
125.181786;115.23113;590.62067
125.17674;115.22808;590.618
125.17199;115.22255;590.61566
125.18608;115.23782;590.612
125.191376;115.24837;590.61053
125.18754;115.24841;590.6066
125.18868;115.24982;590.60175
125.18718;115.248146;590.5984
125.17814;115.23811;590.59796
125.180916;115.23089;590.595
125.188065;115.236275;590.58966
125.19105;115.24374;590.58453
125.18835;115.24081;590.5833
125.191185;115.241905;590.58154
125.195854;115.24675;590.5798
125.19555;115.25039;590.5725
125.19529;115.25111;590.5647
125.195885;115.24739;590.56335
125.20079;115.254105;590.56616
125.20356;115.25838;590.5602
125.20864;115.262436;590.552
125.21707;115.264;590.55164
125.21608;115.26143;590.54175
125.204796;115.25526;590.5371
125.19161;115.244316;590.53094
125.19859;115.24302;590.5294
125.20096;115.236084;590.52924
125.19645;115.230125;590.5369
125.19724;115.230965;590.5275
125.198;115.22733;590.51715
125.1934;115.227005;590.51196
125.19154;115.220474;590.50714
125.191376;115.21325;590.5073
125.18517;115.2023;590.5041
125.18394;115.19174;590.505
125.18809;115.19336;590.50714
125.17993;115.195625;590.5013
125.17865;115.1977;590.50134
125.18754;115.20802;590.50244
125.19454;115.212944;590.4999
125.18813;115.20402;590.494
125.17838;115.190926;590.4924
125.17383;115.1849;590.4919
125.174614;115.18328;590.4942
125.16646;115.17834;590.4942
125.16789;115.17665;590.49426
125.17094;115.17229;590.49554
125.16415;115.17131;590.49695
125.17116;115.17534;590.49713
125.17264;115.17107;590.5004
125.172775;115.16724;590.50244
125.16479;115.16318;590.505
125.168076;115.166115;590.50885
125.1769;115.175835;590.5125
125.18968;115.19021;590.51514
125.19424;115.19825;590.5191
125.2018;115.20707;590.52155
125.20895;115.20562;590.5251
125.20752;115.1967;590.53033
125.20928;115.19467;590.5348
125.20687;115.19244;590.5384
125.20587;115.19854;590.5443
125.21493;115.21051;590.5514
125.227;115.22028;590.5536
125.236984;115.22541;590.5579
125.23262;115.22298;590.5618
125.223236;115.210884;590.5656
125.21855;115.2008;590.5705
125.22726;115.19823;590.576
125.22947;115.19875;590.58185
125.23448;115.20288;590.58826
125.23071;115.202705;590.5914
125.2341;115.20848;590.5939
125.23436;115.209076;590.59784
125.219864;115.193245;590.6001
125.21729;115.183136;590.6057
125.22018;115.185234;590.6124
125.22533;115.1906;590.61334
125.22876;115.19751;590.6167
125.23492;115.21058;590.62115
125.23606;115.21732;590.6252
125.235435;115.21868;590.62683
125.23005;115.21291;590.6298
125.23708;115.21528;590.63275
125.233696;115.20436;590.6349
125.22087;115.18786;590.63654
125.21605;115.18852;590.63873
125.21622;115.19086;590.64166
125.22077;115.19723;590.6445
125.22351;115.19556;590.6443
125.21903;115.184845;590.645
125.21407;115.17274;590.6447
125.20845;115.168205;590.6472
125.20115;115.16587;590.6518
125.19931;115.16277;590.65173
125.20914;115.16814;590.6605
125.203224;115.16926;590.6548
125.19822;115.17293;590.6541
125.19447;115.1664;590.64966
125.188034;115.15615;590.6487
125.184746;115.150276;590.6403
125.18172;115.14475;590.6384
125.1832;115.14482;590.6402
125.191475;115.15218;590.6379
125.196976;115.155334;590.6324
125.204315;115.16136;590.63306
125.20706;115.15944;590.63116
125.20261;115.154686;590.6262
125.20631;115.1565;590.626
125.20798;115.15668;590.6233
125.205826;115.156;590.6189
125.21288;115.16466;590.6153
125.21967;115.168564;590.61285
125.226425;115.1807;590.61
125.228714;115.19307;590.60474
125.22225;115.18912;590.6031
125.2166;115.17987;590.59985
125.222435;115.1782;590.5975
125.22003;115.18168;590.59406
125.22053;115.18738;590.5891
125.222435;115.189186;590.58527
125.22625;115.18752;590.5804
125.22756;115.19365;590.5752
125.23436;115.20349;590.57
125.228714;115.20027;590.5685
125.21707;115.19109;590.5658
125.21026;115.18493;590.56146
125.20358;115.18478;590.55774
125.19905;115.18297;590.5533
125.19279;115.18263;590.547
125.19071;115.17608;590.54364
125.18572;115.159386;590.5404
125.175804;115.13941;590.53503
125.16348;115.1185;590.53156
125.16038;115.10617;590.5292
125.1533;115.090485;590.5263
125.14865;115.08662;590.5226
125.14408;115.08915;590.5166
125.14686;115.08713;590.5128
125.14403;115.084236;590.50653
125.13521;115.07618;590.5061
125.122185;115.057274;590.5084
125.12121;115.047874;590.5057
125.12664;115.049835;590.5056
125.12307;115.052216;590.4973
125.12021;115.052025;590.4894
125.116035;115.04942;590.479
125.10903;115.04871;590.4739
125.108406;115.046906;590.4726
125.0967;115.03236;590.4718
125.07569;114.999886;590.4681
125.06435;114.9827;590.4633
125.061386;114.992165;590.4621
125.06895;115.009094;590.46014
125.07228;115.01502;590.45483
125.07872;115.02015;590.45306
125.08397;115.02337;590.4422
125.073784;115.01205;590.44037
125.07835;115.01572;590.4376
125.075554;115.01298;590.4353
125.07533;115.013;590.43445
125.079346;115.01994;590.43585
125.08199;115.0196;590.42993
125.07991;115.02211;590.4291
125.07593;115.02558;590.41614
125.07598;115.028114;590.41284
125.07322;115.02351;590.4086
125.075554;115.021034;590.40326
125.07395;115.01472;590.4012
125.07891;115.020935;590.40094
125.07267;115.020744;590.4016
125.06256;115.01596;590.4008
125.07246;115.023964;590.4033
125.06578;115.021324;590.41144
125.06108;115.01412;590.4151
125.05583;115.00565;590.4031
125.05519;115.00198;590.3856
125.05077;114.99774;590.375
125.05011;114.9969;590.36786
125.04811;114.99319;590.3649
125.048615;114.99612;590.3623
125.0479;115.000885;590.3578
125.042076;114.98933;590.3623
125.03826;114.98086;590.3617
125.03445;114.98318;590.35626
125.03018;114.98756;590.3542
125.03027;114.9923;590.35175
125.030846;114.99641;590.3488
125.0263;115.00022;590.3505
125.01571;114.99671;590.34607
124.99785;114.97185;590.3396
124.9824;114.94176;590.3357
124.97415;114.92083;590.3299
124.97082;114.920944;590.328
124.97063;114.93103;590.3213
124.98473;114.93768;590.319
125.01048;114.95256;590.3168
125.047844;114.99905;590.31635
125.10757;115.07248;590.3131
125.16234;115.16708;590.3089
125.200554;115.296524;590.3078
125.2455;115.47958;590.3021
125.27697;115.67568;590.29987
125.31056;115.87328;590.296
125.34466;116.054;590.2979
125.3591;116.21892;590.29755
125.36886;116.38901;590.29407
125.393745;116.55573;590.29175
125.37455;116.64357;590.289
125.31137;116.7025;590.2894
125.265976;116.74051;590.29034
125.242424;116.76807;590.2911
125.230545;116.7535;590.2758
125.21825;116.58627;590.27844
125.20354;116.283035;590.27966
125.18105;115.96763;590.2786
125.15011;115.66415;590.2761
125.11873;115.3861;590.2737
125.0709;115.1564;590.27954
125.02859;115.014496;590.2837
125.01196;114.989395;590.2707
125.022285;114.999695;590.26666
125.04585;114.997055;590.2589
125.08888;115.02051;590.261
125.1215;115.03758;590.263
125.13289;115.05642;590.2576
125.14155;115.09413;590.2624
125.13403;115.124626;590.2696
125.13134;115.14535;590.2684
125.13088;115.15376;590.25635
125.13255;115.1632;590.2495
125.12206;115.164635;590.2506
125.10538;115.154854;590.25775
125.0828;115.1484;590.24835
125.0709;115.14334;590.2377
125.07903;115.150085;590.2329
125.09062;115.159386;590.2351
125.10633;115.16866;590.2413
125.11241;115.17684;590.2389
125.10719;115.17689;590.2329
125.10316;115.16714;590.23553
125.10111;115.162224;590.2349
125.09708;115.15796;590.2346
125.09868;115.16153;590.2368
125.08838;115.15798;590.2272
125.094505;115.16368;590.2215
125.10249;115.17452;590.2164
125.11167;115.18302;590.2136
125.11098;115.17972;590.21356
125.09987;115.16547;590.20953
125.09379;115.15569;590.2059
125.09196;115.15295;590.2065
125.09434;115.15727;590.20526
125.102325;115.16902;590.2028
125.10641;115.17519;590.2027
125.10946;115.18302;590.1975
125.1107;115.18971;590.19604
125.10578;115.18614;590.19507
125.09796;115.17868;590.19543
125.102325;115.17851;590.19104
125.10411;115.17896;590.1906
125.0989;115.17856;590.1887
125.09493;115.17911;590.1831
125.10101;115.18823;590.1785
125.110855;115.199394;590.1747
125.11539;115.20392;590.1735
125.12111;115.21115;590.1735
125.115295;115.21165;590.1737
125.11876;115.213554;590.17535
125.126915;115.222786;590.1747
125.12627;115.22319;590.16895
125.12621;115.22154;590.1601
125.127594;115.228386;590.1563
125.127716;115.2327;590.1548
125.128006;115.22591;590.1539
125.12958;115.225716;590.1568
125.12884;115.22863;590.14905
125.1347;115.23852;590.14453
125.138016;115.24396;590.14514
125.144455;115.2533;590.13965
125.153175;115.26797;590.134
125.14977;115.26495;590.1312
125.14262;115.25337;590.12695
125.137375;115.249794;590.12177
125.13088;115.24422;590.1198
125.12646;115.243935;590.11426
125.135704;115.256065;590.1103
125.14801;115.26851;590.10864
125.14488;115.27287;590.10547
125.14536;115.27955;590.10266
125.14603;115.276955;590.0976
125.1441;115.27441;590.09406
125.147934;115.27502;590.0947
125.153465;115.27905;590.09314
125.156425;115.287056;590.09216
125.15482;115.28942;590.08704
125.15628;115.29598;590.0827
125.15604;115.29862;590.0804
125.15423;115.302345;590.0769
125.161095;115.30588;590.0761
125.16193;115.30683;590.0741
125.1615;115.30952;590.0706
125.16842;115.31848;590.0744
125.17099;115.32888;590.069
125.17559;115.339424;590.0696
125.18429;115.34864;590.06525
125.19096;115.35804;590.06323
125.18928;115.35458;590.0757
125.1949;115.35861;590.0664
125.20408;115.367645;590.06824
125.220345;115.38321;590.0681
125.232315;115.39969;590.07263
125.23865;115.41078;590.0497
125.2413;115.42777;590.04065
125.24238;115.43476;590.046
125.23649;115.42749;590.0449
125.235275;115.42592;590.0554
125.2435;115.43845;590.06744
125.244255;115.448875;590.0617
125.2532;115.46182;590.0527
125.25895;115.467354;590.0606
125.26595;115.48459;590.0651
125.27087;115.49947;590.0683
125.27089;115.49799;590.0773
125.28018;115.50271;590.0855
125.28503;115.50865;590.0949
125.286095;115.51688;590.10675
125.29092;115.53113;590.1251
125.30999;115.55519;590.1319
125.31023;115.566315;590.14777
125.313034;115.57578;590.1591
125.31946;115.58079;590.1748
125.32651;115.58663;590.1932
125.33645;115.59584;590.2119
125.337234;115.60099;590.2312
125.34055;115.60669;590.2504
125.346085;115.620674;590.26917
125.34735;115.62936;590.2887
125.34999;115.638824;590.31
125.359886;115.65167;590.3319
125.35665;115.64651;590.3531
125.348495;115.64116;590.37494
125.34025;115.63837;590.3943
125.3375;115.63658;590.4186
125.34902;115.654396;590.4411
125.35336;115.66316;590.465
125.35319;115.66591;590.4851
125.36392;115.67885;590.5052
125.36833;115.67997;590.5269
125.35436;115.66815;590.54553
125.347725;115.65866;590.5688
125.354126;115.6615;590.59283
125.35881;115.672226;590.60803
125.35848;115.67532;590.625
125.35571;115.67454;590.6459
125.353004;115.67154;590.663
125.35075;115.66364;590.6797
125.34322;115.64915;590.6974
125.33473;115.63246;590.7147
125.32484;115.6157;590.7298
125.315094;115.599434;590.7468
125.30498;115.58332;590.7609
125.2983;115.56923;590.77686
125.294235;115.56296;590.7889
125.2918;115.55349;590.8013
125.27974;115.53425;590.8147
125.260994;115.507;590.8313
125.24567;115.48087;590.8459
125.23225;115.4618;590.84814
125.22868;115.44668;590.86115
125.221176;115.4282;590.86755
125.22184;115.42088;590.8756
125.21469;115.40942;590.88306
125.20375;115.3861;590.8914
125.18725;115.35976;590.89954
125.18165;115.33696;590.90533
125.17373;115.31749;590.90857
125.16849;115.30871;590.91626
125.16653;115.29833;590.92035
125.168945;115.290016;590.9275
125.17116;115.28658;590.93176
125.16062;115.26739;590.9316
125.15311;115.24598;590.9343
125.14729;115.231575;590.93445
125.14512;115.22391;590.9376
125.15142;115.22486;590.94147
125.1512;115.21839;590.9432
125.15103;115.21344;590.94403
125.152466;115.21239;590.94147
125.147484;115.20783;590.944
125.142525;115.200424;590.9434
125.14481;115.1977;590.942
125.13723;115.18609;590.9436
125.13349;115.180435;590.9559
125.12986;115.17403;590.9501
125.132195;115.17417;590.9419
125.12855;115.17195;590.9509
125.127525;115.16928;590.9599
125.11985;115.15407;590.9593
125.110855;115.138794;590.95605
125.10099;115.12623;590.9597
125.0952;115.120766;590.9573
125.08509;115.11676;590.94574
125.0803;115.108055;590.94
125.081154;115.10498;590.9443
125.09081;115.11366;590.9425
125.08487;115.10765;590.93945
125.07394;115.09487;590.9332
125.06596;115.08134;590.93054
125.06067;115.07213;590.9292
125.05936;115.07294;590.9281
125.062965;115.08105;590.9273
125.06132;115.08662;590.9277
125.07007;115.092896;590.92834
125.072235;115.08898;590.9298
125.058815;115.07838;590.9269
125.056;115.071915;590.9286
125.059105;115.073654;590.9353
125.06187;115.07556;590.9275
125.0669;115.08566;590.93225
125.07319;115.093254;590.93054
125.07908;115.0978;590.9288
125.08111;115.10503;590.9258
125.08085;115.10508;590.92725
125.08039;115.100426;590.9298
125.07991;115.09614;590.93884
125.079865;115.10041;590.9533
125.07603;115.100784;590.9317
125.07073;115.100426;590.92413
125.06382;115.095795;590.9273
125.05886;115.09151;590.929
125.059555;115.090225;590.93005
125.05917;115.08357;590.9303
125.05813;115.07749;590.9309
125.05619;115.07105;590.93353
125.04849;115.06609;590.93195
125.043625;115.06467;590.93176
125.04706;115.06996;590.93115
125.05087;115.07534;590.9318
125.054504;115.079254;590.9292
125.046104;115.070915;590.9303
125.04241;115.06323;590.9283
125.04117;115.05704;590.93286
125.04672;115.060356;590.9438
125.05173;115.0701;590.93994
125.05021;115.07215;590.93054
125.048515;115.07542;590.9285
125.046486;115.071884;590.92944
125.0411;115.060356;590.9277
125.03051;115.050545;590.92114
125.031685;115.04874;590.92
125.030594;115.04414;590.9266
125.02721;115.044044;590.91693
125.029366;115.04726;590.9025
125.03587;115.05153;590.9018
125.04153;115.0583;590.9032
125.04067;115.05765;590.9031
125.03679;115.05408;590.90344
125.02913;115.04648;590.9183
125.02692;115.038605;590.9181
125.02884;115.03866;590.9198
125.029655;115.04354;590.9038
125.03474;115.04967;590.8941
125.045296;115.06116;590.8804
125.05142;115.06461;590.876
125.04728;115.053764;590.87103
125.03376;115.03462;590.8694
125.027885;115.02652;590.8659
125.02374;115.02432;590.8687
125.02244;115.0243;590.86523
125.01838;115.01822;590.8689
125.01804;115.01724;590.8739
125.01535;115.01476;590.87146
125.00424;114.99912;590.86304
125.001625;114.98818;590.8655
124.99408;114.973724;590.86096
124.988174;114.96875;590.8548
124.98746;114.97464;590.8579
124.989555;114.98015;590.859
124.99499;114.98427;590.85803
124.99769;114.98785;590.8577
124.99888;114.98916;590.8638
124.99904;114.98391;590.8655
124.99485;114.973946;590.8711
124.983215;114.957924;590.8724
124.981155;114.95797;590.86914
124.98555;114.963715;590.8635
124.98913;114.9681;590.8659
124.9917;114.972824;590.8626
124.98801;114.9692;590.86456
124.98214;114.95935;590.8688
124.97532;114.949646;590.86914
124.97177;114.93878;590.8683
124.97239;114.93713;590.8713
124.97086;114.93885;590.8739
124.984665;114.94813;590.87683
124.99306;114.956184;590.8813
124.99503;114.95998;590.8835
124.99051;114.95422;590.8837
124.9865;114.94968;590.8869
124.981;114.94401;590.88995
124.97925;114.940636;590.8903
124.97647;114.94126;590.89417
124.97716;114.94712;590.8971
124.972626;114.94677;590.8991
124.97413;114.94803;590.9022
124.97237;114.94116;590.90326
124.9645;114.92922;590.9071
124.96428;114.92338;590.9096
124.96338;114.9187;590.9127
124.96733;114.924095;590.91315
124.97203;114.933945;590.91614
124.977516;114.945145;590.91785
124.980286;114.94815;590.9207
124.97871;114.94789;590.9219
124.972534;114.93823;590.9264
124.96798;114.927864;590.9292
124.96433;114.923996;590.9277
124.965096;114.92636;590.9311
124.96512;114.93156;590.9322
124.95827;114.92645;590.932
124.958084;114.92752;590.9314
124.96171;114.92941;590.9284
124.95692;114.91565;590.926
124.95093;114.90933;590.92706
124.9495;114.89973;590.9292
124.95141;114.89765;590.92816
124.95856;114.90843;590.9237
124.96027;114.912315;590.92334
124.97349;114.92531;590.92346
124.97894;114.93265;590.9229
124.98324;114.93859;590.9218
124.984;114.935776;590.92474
124.984116;114.93125;590.92413
124.98359;114.93296;590.9164
124.989914;114.94617;590.9224
125.00917;114.97061;590.9258
125.022285;114.98634;590.9195
125.0323;115.001724;590.90753
125.04027;115.0139;590.90405
125.03567;115.005226;590.90173
125.03199;114.997;590.9017
125.03235;114.9914;590.899
125.03945;114.99522;590.8975
125.050705;115.01472;590.8944
125.059814;115.03267;590.8888
125.061264;115.03719;590.885
125.05459;115.034935;590.88165
125.05123;115.03002;590.8802
125.053635;115.03176;590.8756
125.044624;115.02587;590.873
125.04205;115.01932;590.87103
125.04968;115.02387;590.8661
125.057724;115.03212;590.8624
125.064415;115.03679;590.8605
125.066086;115.033295;590.8561
125.06084;115.020386;590.8515
125.045105;114.99681;590.8461
125.04153;114.99035;590.842
125.03221;114.98005;590.8396
125.031136;114.97599;590.8357
125.03383;114.97967;590.8322
125.02544;114.97132;590.82886
125.01978;114.967865;590.8247
125.01656;114.96391;590.8226
125.010414;114.95537;590.816
124.99781;114.94383;590.8101
124.99245;114.932816;590.8107
124.989624;114.93454;590.81256
124.99521;114.943855;590.82465
124.99268;114.93745;590.81824
124.981155;114.917015;590.8034
124.9731;114.90929;590.7944
124.9696;114.9111;590.78394
124.968;114.91034;590.7775
124.96864;114.90893;590.7722
124.96423;114.90491;590.7756
124.96321;114.905975;590.78046
124.96392;114.9063;590.77136
124.96634;114.90855;590.76526
124.972916;114.92018;590.75366
124.97885;114.92586;590.7494
124.97237;114.92037;590.7543
124.96366;114.91284;590.75476
124.96612;114.91143;590.7571
124.97305;114.912865;590.76965
124.973885;114.91853;590.77734
124.98042;114.92919;590.7335
124.9932;114.94271;590.73035
125.00088;114.9501;590.7215
125.00274;114.952034;590.7142
125.00045;114.95144;590.7076
125.00393;114.9498;590.7023
125.00324;114.948265;590.7
125.00508;114.9533;590.6941
125.01029;114.95744;590.6912
125.00641;114.95823;590.68756
125.00008;114.95578;590.6841
125.00064;114.95769;590.6833
124.99916;114.95559;590.6759
124.99618;114.951294;590.6727
125.00312;114.954155;590.6775
125.016495;114.97096;590.68207
125.02389;114.98234;590.66876
125.02565;114.982956;590.65735
125.028366;114.98873;590.6536
125.0236;114.986465;590.6488
125.01983;114.977356;590.6445
125.00127;114.96532;590.64166
124.98262;114.96148;590.64044
124.975395;114.95671;590.6449
124.9723;114.94896;590.6402
124.976204;114.93866;590.62604
124.97561;114.94235;590.6252
124.96819;114.94927;590.61926
124.97293;114.95635;590.6135
125.00457;114.97371;590.611
125.04942;115.01935;590.60693
125.11453;115.09368;590.6056
125.182144;115.20426;590.6082
125.23262;115.33837;590.6104
125.277664;115.51812;590.60345
125.3271;115.72489;590.5937
125.36905;115.91315;590.58966
125.40815;116.06586;590.5885
125.4425;116.21861;590.5827
125.46465;116.39473;590.57855
125.482056;116.57652;590.5758
125.487305;116.698524;590.56915
125.43256;116.766975;590.5648
125.37245;116.816925;590.56287
125.3434;116.84081;590.5586
125.31256;116.80731;590.5572
125.27902;116.61779;590.555
125.25062;116.31929;590.55145
125.22289;116.00027;590.5477
125.200005;115.69509;590.5449
125.17562;115.43152;590.5412
125.14433;115.213936;590.5384
125.09124;115.05365;590.53436
125.059555;115.00182;590.53357
125.06473;114.998604;590.531
125.08948;115.014404;590.5288
125.118996;115.03551;590.5269
125.13303;115.05136;590.52454
125.12707;115.074104;590.5217
125.1307;115.11314;590.5183
125.13117;115.14413;590.5155
125.126;115.15147;590.51385
125.1172;115.15071;590.5112
125.10154;115.14591;590.50903
125.08895;115.14019;590.5086
125.08056;115.14535;590.5039
125.073784;115.15097;590.5004
125.070206;115.14988;590.4976
125.074715;115.151634;590.49634
125.0767;115.15152;590.49646
125.06823;115.14001;590.4934
125.058556;115.12558;590.4915
125.055954;115.12129;590.48865
125.05479;115.12088;590.48785
125.05488;115.123055;590.4863
125.05145;115.12312;590.482
125.05018;115.12153;590.4792
125.04672;115.11814;590.4771
125.04356;115.11409;590.47516
125.04613;115.111755;590.4724
125.046486;115.10985;590.4687
125.04367;115.11308;590.46765
125.05086;115.12601;590.4666
125.05181;115.130226;590.4638
125.0582;115.13705;590.46075
125.068756;115.148445;590.45734
125.06806;115.14317;590.45447
125.07121;115.14065;590.4528
125.068565;115.137856;590.4501
125.06516;115.13481;590.4458
125.06842;115.14251;590.44403
125.07446;115.1508;590.4411
125.07973;115.15843;590.4387
125.08592;115.168274;590.4372
125.08526;115.167595;590.4339
125.07717;115.15841;590.4322
125.06862;115.14828;590.42944
125.06447;115.14566;590.4252
125.064705;115.15076;590.4226
125.07257;115.16771;590.4222
125.08519;115.18108;590.4245
125.088905;115.186806;590.41656
125.09517;115.196884;590.4243
125.096275;115.19525;590.4211
125.09473;115.193695;590.4205
125.10013;115.197754;590.42786
125.10111;115.19854;590.4336
125.11108;115.20931;590.4078
125.11728;115.2142;590.4027
125.11742;115.2198;590.39484
125.115555;115.22689;590.39154
125.11467;115.22269;590.38184
125.11322;115.22085;590.37524
125.1069;115.21405;590.37274
125.101204;115.21243;590.3681
125.104065;115.21809;590.36224
125.10786;115.225494;590.3594
125.11568;115.23692;590.3554
125.113106;115.24222;590.35223
125.1107;115.24186;590.3476
125.10943;115.240974;590.3434
125.10364;115.237114;590.34143
125.107994;115.24212;590.33527
125.114174;115.250275;590.33295
125.12128;115.25974;590.3321
125.12874;115.26603;590.3267
125.1286;115.270134;590.32495
125.13106;115.27853;590.3237
125.13427;115.28093;590.3205
125.13384;115.28074;590.31793
125.13904;115.28299;590.3217
125.14541;115.28835;590.31793
125.14899;115.30032;590.30426
125.15041;115.31019;590.30054
125.15234;115.31507;590.3004
125.15215;115.32032;590.30536
125.15185;115.3193;590.2926
125.15373;115.32242;590.2824
125.15652;115.32764;590.2829
125.15511;115.330215;590.28766
125.158424;115.3383;590.2829
125.16932;115.35572;590.2761
125.17516;115.37091;590.277
125.18708;115.38553;590.2808
125.19016;115.39309;590.2754
125.191376;115.39168;590.2674
125.19879;115.39862;590.26874
125.204895;115.4102;590.2718
125.2098;115.4201;590.27094
125.2208;115.43612;590.2735
125.227165;115.45041;590.278
125.23815;115.46972;590.2846
125.24502;115.48343;590.29425
125.24561;115.486855;590.29895
125.24783;115.491264;590.3074
125.25232;115.50078;590.3201
125.26023;115.51487;590.3277
125.27547;115.53464;590.3393
125.27797;115.545845;590.3514
125.28159;115.55776;590.36487
125.279755;115.562744;590.37964
125.27255;115.560234;590.39813
125.270744;115.55642;590.41675
125.272606;115.55635;590.42676
125.27606;115.56184;590.4453
125.289604;115.58263;590.4645
125.303246;115.59998;590.4849
125.30568;115.61136;590.5039
125.310394;115.6228;590.5244
125.31145;115.62626;590.54517
125.306175;115.61875;590.56824
125.30954;115.62294;590.5887
125.31862;115.63317;590.61163
125.31426;115.63518;590.6314
125.31712;115.64445;590.6531
125.3232;115.65475;590.6736
125.32528;115.664;590.69385
125.32654;115.667625;590.71436
125.3226;115.66238;590.737
125.318504;115.65783;590.7577
125.311874;115.65559;590.7781
125.31375;115.66276;590.79736
125.32066;115.67015;590.8176
125.32203;115.6749;590.8356
125.31635;115.672615;590.854
125.31512;115.66824;590.8741
125.31264;115.66114;590.89185
125.299355;115.64504;590.9087
125.28817;115.62888;590.9264
125.28192;115.61615;590.9434
125.273506;115.60705;590.9567
125.274376;115.599655;590.9713
125.27732;115.5946;590.98584
125.26968;115.58311;590.99854
125.25811;115.56008;591.0103
125.24195;115.53144;591.0226
125.223305;115.4999;591.0331
125.2114;115.47772;591.045
125.204605;115.459076;591.0558
125.19977;115.446396;591.0661
125.19502;115.43392;591.07434
125.18534;115.41495;591.0811
125.18057;115.395424;591.08765
125.17146;115.372154;591.0963
125.15971;115.34769;591.10236
125.15852;115.331764;591.10815
125.15733;115.318886;591.114
125.15261;115.30744;591.1177
125.15311;115.29922;591.12146
125.14745;115.28813;591.1253
125.1434;115.27691;591.1293
125.13613;115.254395;591.1329
125.127594;115.2271;591.13495
125.12298;115.21148;591.13513
125.12531;115.20174;591.1386
125.126884;115.19796;591.14087
125.126;115.19706;591.1496
125.12787;115.19644;591.15784
125.12693;115.18881;591.1424
125.117226;115.17028;591.147
125.10669;115.150154;591.1442
125.107285;115.14124;591.1436
125.10835;115.13149;591.1491
125.09768;115.11848;591.14935
125.0925;115.11507;591.1506
125.09856;115.12241;591.14984
125.09759;115.12289;591.1451
125.094986;115.11604;591.14594
125.09362;115.11133;591.1485
125.08849;115.10186;591.16144
125.07996;115.088486;591.1679
125.06935;115.07986;591.157
125.06799;115.08095;591.1369
125.07486;115.08869;591.1371
125.08289;115.09382;591.1352
125.08921;115.09969;591.1337
125.08588;115.09699;591.1329
125.08044;115.08939;591.13477
125.07948;115.08741;591.1392
125.08082;115.08125;591.14056
125.08249;115.08254;591.1373
125.075264;115.07725;591.1371
125.08006;115.08273;591.1352
125.083755;115.085594;591.13245
125.083046;115.08612;591.13385
125.0823;115.0854;591.13226
125.08034;115.08124;591.13116
125.07896;115.07914;591.13196
125.07579;115.08035;591.13354
125.07503;115.08381;591.1333
125.077126;115.08948;591.1345
125.071754;115.0891;591.1369
125.06256;115.08071;591.1373
125.055664;115.06717;591.13727
125.0504;115.05656;591.1397
125.046585;115.05298;591.14276
125.04517;115.054245;591.14746
125.05059;115.06126;591.155
125.05278;115.06304;591.14844
125.05054;115.06276;591.14825
125.04642;115.06383;591.1523
125.04577;115.05853;591.1564
125.04279;115.05005;591.1589
125.03235;115.04076;591.15784
125.029724;115.04316;591.1586
125.03254;115.053;591.158
125.03943;115.05708;591.1606
125.043465;115.06146;591.1607
125.04248;115.06686;591.16003
125.037025;115.06008;591.1606
125.036095;115.05475;591.1601
125.03311;115.04804;591.1606
125.034836;115.049835;591.16174
125.041595;115.055435;591.1606
125.0505;115.06567;591.1582
125.05283;115.06879;591.15784
125.05539;115.07463;591.15594
125.053955;115.0819;591.154
125.038734;115.064255;591.1517
125.03275;115.05181;591.15063
125.029396;115.04283;591.1483
125.022964;115.036514;591.1476
125.02107;115.03784;591.1453
125.01929;115.03968;591.1411
125.021484;115.04521;591.1375
125.02186;115.05024;591.1346
125.015045;115.04208;591.132
125.018524;115.03875;591.12775
125.01215;115.02611;591.12494
125.00422;115.01729;591.12354
125.00186;115.01865;591.1234
125.00541;115.02568;591.13116
125.01406;115.03522;591.13135
125.02053;115.041084;591.11975
125.01702;115.03348;591.1191
125.010895;115.02531;591.11676
125.00909;115.02316;591.1147
125.009056;115.02008;591.10425
125.011536;115.02129;591.10175
125.01685;115.026566;591.09576
125.02642;115.0357;591.09064
125.03521;115.04239;591.0873
125.03724;115.04399;591.08325
125.035515;115.036224;591.08417
125.04432;115.03629;591.08417
125.043365;115.03069;591.0756
125.037094;115.027405;591.08307
125.03509;115.02895;591.0877
125.03683;115.02952;591.07776
125.04156;115.04195;591.0782
125.04204;115.04507;591.0781
125.03492;115.030594;591.07104
125.03271;115.01741;591.06525
125.03294;115.0156;591.0678
125.033;115.015686;591.07
125.033424;115.01863;591.0689
125.02989;115.011856;591.06775
125.027985;115.0062;591.0602
125.02773;115.003815;591.06104
125.02241;114.9966;591.0661
125.0135;114.98248;591.0652
125.009865;114.97881;591.0702
125.00736;114.97628;591.06976
125.01028;114.980194;591.07983
125.01471;114.988846;591.097
125.02407;114.99772;591.09076
125.03163;115.00692;591.0718
125.0324;115.009285;591.07367
125.02808;115.00294;591.0741
125.025314;114.999;591.086
125.020355;114.99011;591.08307
125.01893;114.98604;591.08325
125.0195;114.99111;591.0815
125.01922;114.992165;591.0837
125.01764;114.99643;591.0866
125.02074;114.99748;591.0826
125.0194;114.98803;591.07916
125.01802;114.984314;591.0851
125.018524;114.98413;591.09076
125.01952;114.98344;591.0957
125.02591;114.99273;591.0902
125.028244;114.99886;591.09314
125.03612;115.004105;591.1056
125.04475;115.00868;591.1029
125.04136;115.001366;591.1031
125.03037;114.99302;591.0975
125.03054;114.99075;591.09467
125.03109;114.99021;591.0978
125.02512;114.985695;591.09845
125.02956;114.990395;591.1003
125.036644;114.99872;591.09393
125.035545;114.999985;591.0959
125.02794;114.99445;591.0948
125.02234;114.98839;591.097
125.01775;114.98188;591.1031
125.016205;114.97555;591.1145
125.0128;114.971275;591.1285
125.00672;114.96765;591.1262
125.007744;114.96651;591.1056
125.01368;114.97068;591.0883
125.01232;114.96627;591.0923
125.0066;114.96221;591.09125
125.00934;114.96496;591.0879
125.011536;114.96567;591.0891
125.01481;114.969055;591.0904
125.01874;114.97581;591.09235
125.019745;114.97986;591.0929
125.02439;114.98301;591.08826
125.02555;114.98658;591.0833
125.02198;114.9893;591.0773
125.024;114.991066;591.0765
125.021835;114.984245;591.0765
125.02558;114.9851;591.0691
125.033966;114.99574;591.0661
125.04418;115.008995;591.06647
125.0483;115.01679;591.06226
125.055626;115.018295;591.0632
125.06625;115.02833;591.05975
125.071;115.03658;591.0509
125.067444;115.036316;591.04504
125.062775;115.03379;591.0442
125.06465;115.03997;591.0425
125.06484;115.04528;591.0374
125.06337;115.04881;591.03394
125.06721;115.057465;591.03143
125.06814;115.05954;591.026
125.061966;115.04743;591.02625
125.06115;115.03963;591.0243
125.06179;115.03074;591.0184
125.061966;115.02349;591.0311
125.06132;115.01779;591.02747
125.0623;115.01262;591.019
125.06566;115.01259;591.02106
125.07246;115.01617;591.0015
125.07489;115.01512;590.99695
125.067085;115.00537;590.99316
125.054214;114.99092;590.98737
125.05064;114.9864;590.9871
125.055954;114.99171;590.9829
125.06162;115.00148;590.9814
125.06552;115.00828;590.9801
125.06632;115.01328;590.9755
125.06198;115.01143;590.97577
125.05018;115.00296;590.9686
125.042175;114.99316;590.96423
125.03326;114.9728;590.9628
125.02216;114.94753;590.96674
125.01087;114.939514;590.9669
125.01256;114.94634;590.94696
125.01712;114.957375;590.93024
125.020355;114.96506;590.922
125.016136;114.960594;590.9228
125.01547;114.956184;590.91956
125.01471;114.95385;590.91547
125.01566;114.95063;590.91656
125.014946;114.95454;590.90765
125.0134;114.95761;590.8985
125.022125;114.964836;590.89264
125.01752;114.9641;590.8884
125.010414;114.95284;590.88654
125.00568;114.94455;590.8792
124.99761;114.9352;590.8848
124.996445;114.9337;590.879
124.99463;114.931885;590.8642
124.98998;114.930336;590.85645
124.985;114.93352;590.85333
124.98896;114.94052;590.8534
124.98941;114.94243;590.8464
124.98335;114.93819;590.83966
124.98462;114.933914;590.8361
124.98479;114.92879;590.8365
124.98429;114.92984;590.8364
124.98223;114.93185;590.8361
124.98359;114.93472;590.8367
124.98691;114.942665;590.8228
124.984856;114.94379;590.8091
124.98032;114.93987;590.81067
124.97232;114.9311;590.8045
124.97072;114.92445;590.79846
124.967926;114.92303;590.8044
124.96874;114.933754;590.8001
124.97246;114.94231;590.7872
124.96917;114.942696;590.78534
124.96375;114.94062;590.7747
124.95277;114.9415;590.76965
124.93661;114.93001;590.7669
124.91903;114.90993;590.7599
124.90439;114.883415;590.75824
124.90044;114.866516;590.7562
124.8981;114.87447;590.74774
124.901695;114.89682;590.74365
124.91796;114.91823;590.741
124.94085;114.938614;590.738
124.97746;114.972824;590.734
125.03681;115.038605;590.7277
125.097725;115.13505;590.72833
125.140045;115.26393;590.72876
125.1878;115.4478;590.7227
125.24228;115.65625;590.712
125.29537;115.8529;590.7094
125.34439;116.017334;590.70825
125.37901;116.17052;590.70953
125.39794;116.340065;590.7108
125.40076;116.50896;590.7116
125.40123;116.61917;590.7014
125.353806;116.696236;590.6947
125.291016;116.75176;590.68695
125.27022;116.79346;590.6811
125.24538;116.76583;590.68097
125.20961;116.581894;590.67896
125.17902;116.30332;590.6726
125.1563;115.983955;590.6689
125.14571;115.67234;590.6678
125.13873;115.41294;590.66614
125.11966;115.17999;590.6626
125.07848;115.00482;590.65967
125.04935;114.946625;590.65796
125.07009;114.97729;590.6554
125.10745;115.01896;590.6495
125.124664;115.03517;590.64844
125.11685;115.05308;590.6469
125.11217;115.08312;590.6445
125.108284;115.10722;590.6379
125.10108;115.12503;590.63574
125.095955;115.13655;590.6316
125.086044;115.13891;590.6279
125.06983;115.13137;590.62683
125.04916;115.11769;590.6279
125.03354;115.10641;590.6199
125.02739;115.10084;590.61725
125.027916;115.102554;590.61597
125.02274;115.098404;590.6137
125.02403;115.097824;590.61127
125.02422;115.09947;590.60675
125.02274;115.09441;590.6039
125.01521;115.0829;590.60156
125.01547;115.07616;590.59955
125.01478;115.072655;590.5997
125.0128;115.07187;590.5973
125.010124;115.07637;590.5952
125.01469;115.085594;590.5905
125.019356;115.09249;590.5858
125.01959;115.09349;590.5812
125.01955;115.08881;590.5789
125.019165;115.08565;590.5777
125.02465;115.090294;590.57605
125.0253;115.09346;590.57275
125.02453;115.097855;590.57043
125.032616;115.109245;590.5666
125.03926;115.11758;590.5619
125.03933;115.1194;590.56134
125.03788;115.116165;590.55835
125.03918;115.114136;590.55646
125.03502;115.113304;590.5541
125.03223;115.114784;590.5619
125.035995;115.11766;590.5602
125.032616;115.114136;590.5443
125.03564;115.11316;590.54333
125.047485;115.12945;590.53876
125.05822;115.13891;590.5305
125.060936;115.13662;590.5254
125.06409;115.13672;590.52277
125.069115;115.142525;590.51807
125.07803;115.15639;590.5149
125.08388;115.1695;590.5125
125.0849;115.175575;590.5106
125.08943;115.1828;590.5052
125.09403;115.19036;590.50006
125.085945;115.183685;590.4951
125.081894;115.17774;590.4898
125.0801;115.171906;590.4838
125.085785;115.17944;590.4822
125.09177;115.19193;590.4771
125.09279;115.19701;590.473
125.096725;115.20652;590.4707
125.104065;115.215416;590.46466
125.09937;115.21175;590.45844
125.093315;115.21015;590.4566
125.09289;115.2137;590.4518
125.09493;115.214134;590.4489
125.09062;115.21289;590.44476
125.09069;115.2148;590.4399
125.096275;115.22505;590.4363
125.10009;115.23661;590.4307
125.095695;115.23328;590.426
125.08642;115.224525;590.42004
125.08378;115.22357;590.41644
125.0864;115.22936;590.4117
125.092125;115.24019;590.4095
125.10108;115.25337;590.4065
125.10669;115.26083;590.40094
125.10774;115.266945;590.3954
125.1022;115.26596;590.39325
125.099174;115.26179;590.3896
125.098015;115.263435;590.38434
125.099106;115.26448;590.38586
125.102394;115.27283;590.3879
125.1022;115.283295;590.3791
125.105545;115.290375;590.3743
125.114174;115.30177;590.36615
125.122116;115.30821;590.36365
125.12302;115.30625;590.3629
125.118805;115.30332;590.3594
125.11735;115.30761;590.3578
125.11811;115.31398;590.35944
125.127625;115.33079;590.36194
125.134796;115.34159;590.36
125.14393;115.357346;590.35364
125.155235;115.37222;590.3525
125.15988;115.38188;590.35547
125.16062;115.387344;590.3585
125.16324;115.390396;590.3623
125.16496;115.39671;590.3675
125.168724;115.40405;590.37006
125.17412;115.414734;590.3774
125.17988;115.4283;590.3841
125.18279;115.44173;590.3944
125.18592;115.451836;590.408
125.185295;115.44847;590.4154
125.187775;115.452286;590.4287
125.1925;115.4617;590.4436
125.20134;115.47365;590.4574
125.21074;115.49196;590.4705
125.213974;115.50603;590.4863
125.218414;115.51928;590.5024
125.22094;115.5272;590.5239
125.22371;115.530754;590.53986
125.2247;115.53191;590.55927
125.224686;115.531296;590.5787
125.22279;115.533226;590.59985
125.23207;115.55335;590.61926
125.23579;115.56778;590.63904
125.241356;115.5821;590.6622
125.2466;115.5936;590.6837
125.24561;115.59157;590.7044
125.24595;115.58871;590.72516
125.24643;115.58764;590.7462
125.24652;115.59409;590.76746
125.24679;115.60373;590.7889
125.252884;115.616005;590.8099
125.25649;115.62299;590.8314
125.258965;115.62702;590.8527
125.26333;115.63108;590.87305
125.268555;115.63515;590.8928
125.27012;115.63768;590.91
125.26106;115.630905;590.9283
125.25837;115.63005;590.947
125.258965;115.63299;590.967
125.25677;115.628426;590.9846
125.25246;115.62395;590.9992
125.24723;115.61236;591.01587
125.23541;115.59264;591.0319
125.22745;115.57941;591.04645
125.22426;115.56873;591.05994
125.21877;115.554276;591.0727
125.213;115.54264;591.08655
125.20769;115.52929;591.0991
125.20096;115.51439;591.1113
125.19869;115.504166;591.1219
125.19202;115.48655;591.13196
125.184746;115.462944;591.1401
125.17397;115.440125;591.1479
125.16444;115.418785;591.15735
125.16031;115.40501;591.16284
125.15864;115.39409;591.1715
125.15163;115.37981;591.17773
125.15142;115.37001;591.18195
125.14372;115.3501;591.18756
125.126434;115.320915;591.1932
125.117325;115.29932;591.1996
125.11275;115.281525;591.2017
125.11026;115.26356;591.2045
125.10667;115.2487;591.20624
125.102066;115.23554;591.20953
125.101494;115.23166;591.2112
125.101166;115.22316;591.2155
125.095245;115.20332;591.2159
125.08563;115.18678;591.21716
125.08366;115.17551;591.2195
125.07319;115.1565;591.2206
125.06716;115.14704;591.22144
125.06794;115.144226;591.22327
125.06132;115.136665;591.2229
125.05786;115.12532;591.2224
125.05476;115.11192;591.22253
125.049805;115.09799;591.22253
125.04887;115.088745;591.2212
125.04985;115.085304;591.2204
125.04992;115.08583;591.2223
125.05102;115.085526;591.22076
125.05379;115.08555;591.2204
125.05939;115.0871;591.2204
125.06284;115.08576;591.2201
125.06602;115.08279;591.22
125.06578;115.08135;591.21936
125.0678;115.07704;591.2172
125.07305;115.08276;591.2169
125.07632;115.090775;591.21606
125.08125;115.09697;591.2161
125.08592;115.104126;591.2161
125.08285;115.10203;591.21674
125.076866;115.09155;591.2171
125.07116;115.07997;591.2155
125.06704;115.07282;591.2153
125.06661;115.07296;591.21716
125.077225;115.08309;591.21783
125.09141;115.092964;591.2187
125.09849;115.10279;591.2201
125.102135;115.11173;591.2197
125.10108;115.10896;591.221
125.1019;115.10293;591.2219
125.102036;115.10155;591.22565
125.10378;115.103745;591.22626
125.1034;115.10664;591.2292
125.10548;115.11621;591.2338
125.1112;115.12308;591.2334
125.11503;115.129326;591.23865
125.11644;115.12744;591.24426
125.11246;115.11998;591.2425
125.106834;115.10729;591.2419
125.10404;115.10503;591.24457
125.10714;115.11049;591.2516
125.10815;115.11557;591.24884
125.10493;115.11693;591.24884
125.1074;115.12551;591.25385
125.10299;115.124916;591.25116
125.09532;115.113304;591.2522
125.088905;115.1046;591.2553
125.0874;115.10341;591.25757
125.08573;115.10262;591.25836
125.08325;115.10138;591.26025
125.079384;115.097275;591.26086
125.085396;115.10598;591.26074
125.09119;115.12015;591.26215
125.08719;115.11288;591.26074
125.07705;115.09668;591.26154
125.07072;115.08789;591.26843
125.06878;115.08512;591.267
125.070305;115.09154;591.2626
125.0802;115.10026;591.25964
125.08359;115.10545;591.25494
125.08092;115.104836;591.2497
125.07617;115.09823;591.2468
125.07348;115.092606;591.24384
125.07438;115.08691;591.2408
125.07651;115.088936;591.2373
125.08147;115.096375;591.23413
125.0871;115.10417;591.233
125.08921;115.10689;591.2303
125.09131;115.10727;591.2288
125.08497;115.10091;591.22534
125.0745;115.0865;591.22205
125.0677;115.07928;591.21655
125.06802;115.076294;591.20953
125.07157;115.07938;591.21045
125.07819;115.087006;591.20685
125.080185;115.0938;591.20667
125.0817;115.10395;591.21106
125.09071;115.110985;591.20087
125.09527;115.10977;591.1902
125.09372;115.10467;591.19073
125.09393;115.102196;591.18713
125.09675;115.102165;591.1886
125.09868;115.105934;591.18634
125.097984;115.10508;591.18
125.100395;115.102646;591.1775
125.10249;115.10322;591.1671
125.103584;115.10293;591.1675
125.098206;115.09237;591.16614
125.09334;115.08638;591.1623
125.094696;115.08517;591.1616
125.09093;115.08367;591.1606
125.09334;115.09111;591.16077
125.09701;115.09329;591.1659
125.10404;115.10007;591.1618
125.10709;115.10722;591.1498
125.10585;115.098145;591.1514
125.10752;115.09459;591.14825
125.10762;115.0897;591.1477
125.10912;115.085815;591.1496
125.11256;115.09183;591.1507
125.1115;115.09459;591.1524
125.11196;115.09578;591.1483
125.113464;115.09651;591.1489
125.10516;115.08457;591.14746
125.09677;115.06902;591.1517
125.08931;115.05705;591.1571
125.08295;115.04981;591.16144
125.0839;115.05508;591.1479
125.085304;115.05722;591.1514
125.08678;115.05787;591.1595
125.083916;115.060036;591.169
125.08295;115.05451;591.155
125.087524;115.049644;591.1589
125.08318;115.04266;591.16394
125.085205;115.04304;591.1625
125.09055;115.049545;591.1636
125.08859;115.04685;591.16144
125.08666;115.0428;591.1612
125.08252;115.04433;591.1644
125.08814;115.04886;591.1667
125.08497;115.04507;591.1663
125.07908;115.0391;591.16565
125.07677;115.03398;591.1665
125.07319;115.02955;591.1696
125.07193;115.02974;591.1734
125.070885;115.02847;591.1717
125.07655;115.03365;591.1702
125.07853;115.03727;591.1702
125.07746;115.035385;591.1713
125.075455;115.02909;591.1732
125.07438;115.01943;591.1736
125.07009;115.016045;591.1711
125.07019;115.02175;591.1707
125.06973;115.02228;591.17126
125.06547;115.02221;591.17053
125.06477;115.02447;591.1709
125.06435;115.02037;591.1707
125.053955;115.004944;591.16907
125.05047;114.99946;591.16693
125.04682;114.992065;591.1675
125.04379;114.99052;591.165
125.05309;114.99834;591.16565
125.05593;115.00434;591.16284
125.05593;115.01059;591.16187
125.058365;115.01124;591.1599
125.05471;115.00196;591.1574
125.0526;114.99564;591.1563
125.0571;114.99142;591.15356
125.06051;114.992134;591.152
125.06779;115.00417;591.15106
125.06483;115.01031;591.1477
125.0621;115.01374;591.14685
125.062935;115.0155;591.143
125.063515;115.00959;591.14026
125.06707;115.007515;591.1394
125.06346;115.00232;591.13837
125.065254;115.00377;591.1391
125.0677;115.01116;591.1337
125.069016;115.0155;591.1292
125.073784;115.02427;591.12384
125.079865;115.02972;591.11957
125.08051;115.02695;591.117
125.08032;115.02699;591.113
125.08266;115.02709;591.109
125.085754;115.02999;591.1067
125.0817;115.02948;591.105
125.085754;115.03581;591.10284
125.09367;115.04135;591.0978
125.09286;115.045;591.09564
125.09318;115.04874;591.0887
125.092735;115.044945;591.0898
125.10072;115.045525;591.0893
125.102715;115.044586;591.08954
125.10469;115.05133;591.0824
125.1152;115.06488;591.0809
125.12012;115.068665;591.0806
125.12593;115.076416;591.0747
125.1236;115.07378;591.05725
125.11699;115.06528;591.0541
125.11322;115.05756;591.05023
125.11329;115.051926;591.04315
125.11477;115.0527;591.0433
125.11964;115.05737;591.0397
125.127525;115.067764;591.03253
125.13702;115.082306;591.0279
125.14231;115.087364;591.0237
125.13291;115.08004;591.02344
125.11833;115.065636;591.02826
125.11179;115.05622;591.02795
125.114174;115.05644;591.02325
125.11835;115.0654;591.0268
125.12205;115.07368;591.0165
125.12528;115.0774;591.0046
125.12765;115.08495;590.9863
125.131584;115.091125;590.98035
125.127884;115.07902;590.9786
125.123375;115.06962;590.97815
125.12038;115.06376;590.9728
125.12824;115.0658;590.9689
125.1378;115.074486;590.97296
125.14176;115.0789;590.9733
125.13999;115.07976;590.96674
125.13974;115.07928;590.94867
125.139565;115.07563;590.94165
125.13873;115.07897;590.9377
125.13847;115.07761;590.9332
125.14209;115.08088;590.9314
125.15175;115.090294;590.9264
125.15967;115.10734;590.92126
125.17337;115.124435;590.91754
125.18465;115.137856;590.9157
125.1889;115.1365;590.917
125.19131;115.13367;590.9089
125.19323;115.12899;590.91455
125.19593;115.125885;590.90643
125.20103;115.136955;590.8971
125.197044;115.14413;590.8884
125.18899;115.144554;590.8827
125.18453;115.14315;590.8792
125.17586;115.136765;590.87933
125.17044;115.126656;590.8798
125.17223;115.12255;590.8735
125.18029;115.12119;590.8789
125.18417;115.118835;590.88165
125.18339;115.122246;590.8637
125.18086;115.124695;590.8483
125.18349;115.122955;590.8456
125.18708;115.11991;590.844
125.18894;115.1169;590.8398
125.186485;115.10684;590.8344
125.1856;115.10207;590.82776
125.18589;115.10091;590.82275
125.194115;115.10949;590.82086
125.195;115.119095;590.82166
125.192856;115.122696;590.8195
125.19417;115.1267;590.8047
125.19328;115.119736;590.8013
125.19476;115.11347;590.79736
125.19636;115.11261;590.7923
125.19786;115.115395;590.79095
125.19717;115.118355;590.786
125.196976;115.11979;590.782
125.202866;115.12563;590.77515
125.19936;115.11361;590.7739
125.18513;115.09494;590.772
125.17378;115.08336;590.7841
125.1661;115.07823;590.79297
125.157684;115.07408;590.7662
125.15681;115.07353;590.76184
125.161385;115.078064;590.7629
125.16307;115.0828;590.7565
125.16479;115.088196;590.7535
125.16734;115.094345;590.7466
125.1661;115.0907;590.7507
125.1653;115.08236;590.7438
125.161644;115.076775;590.729
125.164024;115.08026;590.7281
125.17245;115.08936;590.7267
125.17342;115.09399;590.72406
125.17165;115.09466;590.7279
125.17586;115.10131;590.7286
125.17092;115.095116;590.7144
125.16122;115.08662;590.7156
125.159065;115.080635;590.7093
125.16379;115.08566;590.7088
125.16496;115.090675;590.70465
125.16472;115.09578;590.6938
125.168076;115.10181;590.6975
125.17085;115.10586;590.6957
125.173615;115.10811;590.6928
125.17044;115.107056;590.6906
125.16563;115.10204;590.68677
125.15535;115.08803;590.69
125.158;115.090004;590.67993
125.165436;115.10317;590.6771
125.16777;115.10792;590.67584
125.163;115.10329;590.6638
125.159615;115.101875;590.6586
125.15656;115.097855;590.65875
125.157906;115.093155;590.66125
125.16382;115.09535;590.66187
125.17146;115.10405;590.6586
125.17438;115.1148;590.6593
125.16975;115.11686;590.6563
125.16133;115.11337;590.6455
125.1465;115.1087;590.6403
125.13246;115.09597;590.65076
125.1168;115.07704;590.6475
125.10745;115.05792;590.62885
125.10459;115.04066;590.621
125.09908;115.04159;590.62366
125.09279;115.054886;590.6142
125.09994;115.06937;590.60724
125.13022;115.09847;590.6039
125.17467;115.153114;590.6009
125.23124;115.21739;590.5973
125.292534;115.30845;590.5957
125.33059;115.43292;590.5937
125.3695;115.59879;590.58966
125.4287;115.80932;590.58527
125.48749;116.001274;590.5824
125.53732;116.16444;590.5822
125.574036;116.3345;590.5781
125.59173;116.50061;590.573
125.588104;116.66224;590.56836
125.580505;116.760155;590.5648
125.527855;116.83158;590.5658
125.46813;116.89451;590.5614
125.444626;116.93165;590.55884
125.41375;116.897675;590.55066
125.3859;116.72646;590.5458
125.36259;116.46168;590.54315
125.34079;116.142555;590.5402
125.32487;115.82515;590.5362
125.31772;115.558426;590.5325
125.28967;115.32841;590.528
125.25508;115.17057;590.52545
125.24264;115.13404;590.52014
125.281906;115.18845;590.5168
125.316475;115.2275;590.513
125.32;115.231865;590.5125
125.30898;115.247154;590.5101
125.30241;115.27001;590.5075
125.299835;115.28932;590.5048
125.29497;115.308426;590.50354
125.28691;115.31574;590.50006
125.28166;115.32667;590.49835
125.27422;115.33283;590.494
125.2614;115.32559;590.4853
125.25389;115.32071;590.4834
125.251724;115.316574;590.4795
125.25591;115.31298;590.4765
125.25486;115.31105;590.4754
125.2537;115.31184;590.47046
125.25928;115.322014;590.4634
125.26419;115.32919;590.46185
125.26464;115.32769;590.46545
125.25816;115.31739;590.4629
125.25129;115.30683;590.4559
125.24679;115.299385;590.4549
125.24493;115.29825;590.44836
125.2522;115.30654;590.44977
125.25844;115.31609;590.4532
125.26094;115.32318;590.44055
125.26011;115.32575;590.43036
125.26104;115.316795;590.4209
125.26431;115.31345;590.4177
125.26603;115.31264;590.4156
125.267105;115.31579;590.4157
125.26762;115.328094;590.4091
125.26814;115.32697;590.4143
125.269844;115.32867;590.40674
125.271484;115.33682;590.3994
125.26646;115.331;590.38544
125.26767;115.325356;590.3838
125.265976;115.32418;590.38153
125.26535;115.322296;590.37695
125.265335;115.3218;590.37244
125.261024;115.32449;590.36835
125.261925;115.3312;590.3653
125.26545;115.33713;590.36237
125.25873;115.33283;590.35974
125.253555;115.3274;590.3522
125.25372;115.32841;590.3535
125.257324;115.3295;590.355
125.26675;115.34135;590.3476
125.27368;115.355125;590.33655
125.28037;115.36529;590.32404
125.2907;115.37919;590.31946
125.29893;115.39082;590.3153
125.30289;115.39287;590.3112
125.30052;115.388245;590.3076
125.30384;115.385475;590.3113
125.304504;115.39128;590.30994
125.311844;115.40412;590.2907
125.31947;115.41364;590.28595
125.32484;115.424774;590.28314
125.335495;115.438194;590.2764
125.340935;115.437126;590.273
125.340416;115.43154;590.27045
125.34447;115.43714;590.263
125.34973;115.446205;590.2575
125.35397;115.45758;590.2545
125.356766;115.46511;590.2502
125.35975;115.470116;590.2452
125.36571;115.482376;590.2421
125.36604;115.483444;590.2379
125.36282;115.480446;590.23804
125.36499;115.4803;590.2351
125.37274;115.49077;590.2297
125.37887;115.50109;590.22705
125.38283;115.5076;590.21704
125.3848;115.513535;590.21295
125.38652;115.521904;590.21045
125.3848;115.520706;590.2046
125.37606;115.51396;590.1965
125.3756;115.51533;590.19476
125.37813;115.51975;590.1921
125.381874;115.524216;590.19086
125.38771;115.53299;590.1911
125.39342;115.54334;590.1806
125.40033;115.55627;590.17883
125.400856;115.563126;590.1821
125.396225;115.55821;590.1811
125.39396;115.55473;590.1872
125.39219;115.55647;590.1885
125.39835;115.563385;590.19293
125.407005;115.5749;590.1842
125.40898;115.5847;590.17926
125.414536;115.5985;590.1763
125.416084;115.60826;590.179
125.419334;115.61183;590.18164
125.41838;115.6094;590.18976
125.41881;115.60879;590.19946
125.42065;115.61662;590.2109
125.42412;115.62941;590.2261
125.43316;115.64383;590.2449
125.438644;115.65339;590.2504
125.445885;115.66562;590.25793
125.44701;115.673294;590.2701
125.44319;115.67573;590.28424
125.43936;115.67328;590.3014
125.443214;115.675446;590.319
125.44796;115.69061;590.3372
125.45719;115.7079;590.35754
125.46594;115.720604;590.3782
125.47085;115.73135;590.40076
125.47647;115.74661;590.4232
125.47755;115.74959;590.44476
125.47361;115.74542;590.46796
125.46562;115.73998;590.495
125.46532;115.74094;590.51764
125.46515;115.75024;590.5378
125.46627;115.75553;590.56287
125.469894;115.767;590.58545
125.4786;115.78378;590.60803
125.485054;115.79051;590.6344
125.47986;115.78583;590.65967
125.4801;115.78826;590.68176
125.48158;115.79111;590.69824
125.48451;115.80209;590.7224
125.48971;115.813416;590.74817
125.494675;115.82277;590.7766
125.49944;115.83273;590.78784
125.49738;115.83518;590.80286
125.493454;115.83254;590.82214
125.49159;115.82902;590.8399
125.493454;115.82837;590.85443
125.488785;115.82541;590.8663
125.491135;115.830345;590.88165
125.4919;115.8339;590.8971
125.491356;115.83528;590.9104
125.49173;115.82758;590.9241
125.486465;115.81575;590.9386
125.479454;115.80335;590.95026
125.47462;115.790054;590.96075
125.46675;115.77615;590.96893
125.459;115.76914;590.9755
125.451965;115.75546;590.98676
125.44181;115.74077;590.9966
125.4339;115.72721;591.00165
125.424;115.709465;591.00507
125.40915;115.68331;591.0107
125.39169;115.65177;591.018
125.38097;115.62985;591.02216
125.37511;115.61827;591.0264
125.37191;115.60843;591.02924
125.36915;115.59665;591.0321
125.364944;115.58542;591.0334
125.35512;115.56398;591.03625
125.344604;115.53602;591.03754
125.33967;115.519684;591.04
125.33154;115.49956;591.0406
125.32525;115.48387;591.0406
125.32239;115.46868;591.0442
125.32072;115.45693;591.0434
125.31956;115.44773;591.04376
125.31816;115.43927;591.0414
125.31321;115.41865;591.0416
125.30565;115.39886;591.044
125.300285;115.38193;591.0442
125.29902;115.37294;591.0485
125.30174;115.368935;591.05005
125.29957;115.36195;591.0429
125.29805;115.35558;591.0443
125.30558;115.3562;591.0399
125.311775;115.3537;591.0352
125.311966;115.346214;591.034
125.30565;115.33117;591.037
125.29933;115.3218;591.04694
125.29905;115.32068;591.0556
125.29912;115.31937;591.03656
125.30279;115.32158;591.03204
125.30279;115.32173;591.02985
125.29645;115.314285;591.0313
125.28388;115.29547;591.0267
125.27775;115.282646;591.02
125.272675;115.27318;591.0173
125.27664;115.280365;591.018
125.28166;115.28346;591.0174
125.285126;115.28442;591.0159
125.28793;115.29138;591.018
125.29325;115.2992;591.0234
125.293564;115.289375;591.026
125.294914;115.28396;591.0221
125.292656;115.28151;591.03394
125.29353;115.28191;591.0437
125.29297;115.28125;591.0241
125.28929;115.27967;591.02026
125.293655;115.286514;591.0209
125.29682;115.29253;591.0296
125.289894;115.28151;591.0315
125.28181;115.27369;591.02783
125.27962;115.27328;591.0346
125.28269;115.27745;591.04083
125.284836;115.281334;591.041
125.28451;115.28461;591.03986
125.28441;115.28534;591.0458
125.2906;115.28992;591.04126
125.29095;115.29348;591.03955
125.286095;115.28472;591.037
125.28286;115.27876;591.0427
125.281494;115.27633;591.0507
125.283;115.277405;591.0516
125.28553;115.28246;591.0513
125.28562;115.28663;591.0614
125.29389;115.2997;591.0532
125.300735;115.30964;591.05176
125.301025;115.306946;591.05145
125.299545;115.30404;591.0509
125.29895;115.301605;591.0536
125.29897;115.29898;591.05084
125.30263;115.3044;591.0511
125.300385;115.30589;591.05066
125.30179;115.309235;591.04895
125.302666;115.31489;591.04706
125.30264;115.31322;591.0487
125.30431;115.30866;591.049
125.30329;115.30089;591.04816
125.29938;115.295525;591.052
125.30243;115.30128;591.0477
125.3046;115.308876;591.0459
125.30486;115.30921;591.0511
125.306885;115.31088;591.0455
125.30307;115.30756;591.0456
125.29664;115.296715;591.04333
125.28781;115.286156;591.03174
125.28388;115.281006;591.0325
125.28388;115.28168;591.0444
125.28596;115.28561;591.0353
125.287384;115.28758;591.03015
125.2953;115.29772;591.01135
125.2974;115.30148;591.00824
125.28763;115.28849;591.01074
125.279976;115.28086;591.01263
125.27632;115.272514;590.99677
125.28057;115.272514;590.9981
125.28383;115.276566;591.0008
125.28622;115.27662;590.9941
125.2881;115.283104;590.9962
125.29208;115.28888;590.99335
125.29616;115.28682;590.9846
125.29139;115.276024;590.98206
125.28626;115.266655;590.97577
125.28548;115.26427;590.9696
125.28333;115.267746;590.9666
125.28284;115.27073;590.97723
125.28853;115.27311;590.98175
125.29554;115.280075;590.96423
125.29829;115.28212;590.9556
125.29297;115.26961;590.95154
125.28339;115.25678;590.9504
125.280334;115.24856;590.9492
125.28314;115.25604;590.9507
125.280426;115.256;590.9524
125.280304;115.254585;590.9569
125.2856;115.262024;590.95667
125.28817;115.261696;590.95886
125.285934;115.25235;590.9489
125.28093;115.240685;590.951
125.27802;115.23476;590.9549
125.27902;115.23275;590.95386
125.284904;115.242424;590.9493
125.28799;115.25225;590.9518
125.2902;115.25481;590.9438
125.295204;115.25896;590.94385
125.291626;115.24877;590.94446
125.28166;115.23348;590.94464
125.27859;115.22665;590.946
125.28071;115.22786;590.9468
125.279655;115.231606;590.9447
125.2775;115.229836;590.9453
125.280525;115.23377;590.94727
125.28488;115.23888;590.9467
125.28126;115.23358;590.9489
125.269745;115.21947;590.9499
125.263664;115.20974;590.9535
125.2584;115.20273;590.9559
125.25687;115.20109;590.9618
125.257484;115.201225;590.9607
125.26135;115.20624;590.9543
125.265144;115.212105;590.9553
125.26712;115.21232;590.95435
125.26142;115.20249;590.9563
125.25913;115.197655;590.9548
125.25581;115.187996;590.9569
125.25472;115.18385;590.96155
125.25394;115.185715;590.961
125.25127;115.18294;590.961
125.24863;115.18089;590.96075
125.2459;115.18214;590.958
125.240204;115.17565;590.9571
125.235245;115.16666;590.95605
125.2319;115.159966;590.9576
125.229164;115.15555;590.96466
125.228615;115.15307;590.96295
125.22459;115.15717;590.9645
125.22266;115.159744;590.967
125.22697;115.16717;590.9601
125.22647;115.1657;590.9614
125.22288;115.156;590.9764
125.22368;115.15143;590.955
125.223274;115.1462;590.9535
125.22228;115.142624;590.9509
125.22342;115.14496;590.9438
125.23078;115.156525;590.9413
125.232574;115.15841;590.93994
125.227135;115.15455;590.942
125.2207;115.14298;590.94257
125.21414;115.13478;590.9403
125.202866;115.12341;590.94073
125.204796;115.12338;590.94214
125.21624;115.13936;590.93976
125.21825;115.1452;590.9315
125.215454;115.14305;590.92456
125.21074;115.14436;590.9238
125.203125;115.136406;590.9269
125.19895;115.12558;590.92834
125.1918;115.1161;590.9207
125.187965;115.11316;590.9191
125.18346;115.11271;590.90906
125.18553;115.117;590.90643
125.18671;115.119736;590.90393
125.188034;115.122314;590.89874
125.18661;115.11781;590.89246
125.17838;115.10792;590.89355
125.17249;115.1;590.8956
125.16274;115.08936;590.88763
125.15735;115.08839;590.88586
125.15704;115.089645;590.8752
125.15819;115.08912;590.87103
125.159836;115.09194;590.86816
125.15161;115.088196;590.8638
125.1481;115.08464;590.86505
125.14977;115.082;590.8643
125.147194;115.07718;590.8534
125.14534;115.07379;590.8506
125.14505;115.07499;590.8483
125.14479;115.07792;590.8439
125.14832;115.087006;590.8361
125.15106;115.09096;590.8305
125.14488;115.084;590.82855
125.14233;115.080635;590.8277
125.14129;115.07654;590.8224
125.13633;115.0706;590.823
125.133896;115.07122;590.8168
125.13063;115.0702;590.80963
125.13182;115.07132;590.80945
125.13347;115.07546;590.81464
125.13058;115.07132;590.8183
125.12729;115.064354;590.80005
125.12588;115.05882;590.798
125.12703;115.05911;590.79987
125.13058;115.06214;590.80536
125.136536;115.070526;590.794
125.14348;115.07704;590.8035
125.145836;115.081116;590.794
125.13999;115.07701;590.77893
125.13168;115.0656;590.77686
125.12498;115.05704;590.7747
125.11551;115.04774;590.76355
125.10912;115.04018;590.75854
125.1075;115.037056;590.76697
125.10614;115.03794;590.754
125.10549;115.03941;590.74347
125.10776;115.046234;590.7319
125.10478;115.042015;590.729
125.10302;115.03532;590.7293
125.101234;115.03157;590.72876
125.10078;115.02676;590.7256
125.10371;115.02955;590.72955
125.11213;115.03765;590.71954
125.11947;115.046425;590.7162
125.12564;115.05446;590.71124
125.12939;115.055916;590.70123
125.12266;115.04249;590.6981
125.112816;115.03496;590.6962
125.105255;115.0314;590.7002
125.101135;115.026634;590.7044
125.09999;115.03165;590.69916
125.10009;115.031784;590.6892
125.10605;115.036;590.67737
125.105736;115.03655;590.6769
125.10285;115.029594;590.6726
125.097466;115.0211;590.6668
125.09489;115.01531;590.6689
125.09803;115.01896;590.66833
125.10164;115.02597;590.66003
125.10307;115.03374;590.6552
125.10097;115.03458;590.6505
125.09926;115.03017;590.6472
125.09706;115.02473;590.645
125.09022;115.01553;590.6382
125.08638;115.00904;590.6324
125.08611;115.00893;590.6293
125.08874;115.01712;590.6243
125.096535;115.03313;590.6209
125.10569;115.045525;590.6183
125.11265;115.05308;590.614
125.111694;115.04554;590.61035
125.10716;115.0304;590.6074
125.10664;115.02027;590.6047
125.10834;115.015884;590.6008
125.114075;115.01621;590.5992
125.12107;115.0171;590.596
125.12915;115.02275;590.5927
125.13502;115.03372;590.5885
125.13907;115.0397;590.58545
125.13713;115.034645;590.5806
125.13216;115.026924;590.5784
125.13384;115.02134;590.5765
125.135155;115.0218;590.5717
125.13678;115.028595;590.56744
125.141235;115.04058;590.566
125.14587;115.05622;590.5641
125.149;115.06286;590.5614
125.15568;115.066216;590.55664
125.15602;115.06378;590.5544
125.15771;115.0646;590.55975
125.16184;115.065094;590.56537
125.16172;115.06178;590.54724
125.16472;115.06347;590.54205
125.16298;115.064255;590.5396
125.15793;115.06102;590.5366
125.14893;115.05639;590.53094
125.13988;115.042305;590.5283
125.13373;115.03278;590.5254
125.12584;115.02713;590.5225
125.123215;115.03336;590.5209
125.129295;115.0453;590.5196
125.135414;115.049095;590.51917
125.13528;115.05046;590.5159
125.13696;115.050545;590.5125
125.135056;115.04089;590.50903
125.12824;115.02907;590.51044
125.119255;115.01465;590.50287
125.114655;115.002556;590.50433
125.11477;115.00394;590.5086
125.11551;115.006775;590.4931
125.117615;115.01295;590.49646
125.11453;115.01378;590.4918
125.1019;114.99947;590.48846
125.09143;114.989395;590.48505
125.08342;114.98196;590.4785
125.08027;114.97545;590.4794
125.08182;114.98062;590.4866
125.084015;114.988846;590.4885
125.08182;114.99154;590.48846
125.073524;114.98815;590.4645
125.06859;114.985886;590.45526
125.05948;114.97407;590.4555
125.04427;114.9502;590.45496
125.032585;114.93561;590.458
125.028175;114.93487;590.4498
125.02346;114.937706;590.44165
125.029755;114.94903;590.43915
125.04074;114.962006;590.43317
125.04791;114.968155;590.4281
125.04735;114.96351;590.4252
125.04875;114.96195;590.4217
125.05149;114.96296;590.4189
125.05462;114.96358;590.41376
125.06234;114.97528;590.4125
125.07014;114.98577;590.41016
125.070305;114.98859;590.40643
125.07073;114.98927;590.40204
125.06947;114.987656;590.3979
125.061485;114.977264;590.39886
125.05428;114.967575;590.393
125.05278;114.96751;590.3913
125.05662;114.97664;590.39575
125.05424;114.97407;590.3857
125.049736;114.972015;590.38055
125.05106;114.974014;590.382
125.05004;114.97473;590.3755
125.0474;114.97244;590.3735
125.04146;114.965294;590.38025
125.037285;114.95874;590.3696
125.03614;114.9616;590.37524
125.03965;114.970085;590.38916
125.047844;114.978546;590.3694
125.054115;114.98658;590.35986
125.05316;114.982864;590.34796
125.05171;114.98272;590.3458
125.04887;114.97914;590.3476
125.04418;114.975494;590.34485
125.04175;114.97548;590.33093
125.04176;114.97897;590.3288
125.047966;114.98563;590.33356
125.050735;114.99159;590.3245
125.051186;114.994095;590.3131
125.05016;114.99309;590.3113
125.04582;114.9889;590.30914
125.03712;114.984695;590.3059
125.02126;114.97824;590.30786
124.99835;114.97049;590.3082
124.990746;114.96376;590.3003
124.98419;114.94941;590.2958
124.98088;114.93091;590.28674
124.971176;114.918465;590.2947
124.95944;114.91882;590.29724
124.96421;114.930176;590.2757
124.98851;114.94922;590.27686
125.02942;114.99166;590.2922
125.10071;115.06927;590.29047
125.17304;115.16385;590.27
125.222084;115.28186;590.2651
125.26106;115.431335;590.2493
125.3098;115.613556;590.2495
125.36354;115.801834;590.2538
125.41365;115.96159;590.25134
125.456184;116.12491;590.2436
125.4843;116.301125;590.2373
125.48945;116.48154;590.21857
125.49495;116.61074;590.2156
125.46491;116.692924;590.21533
125.39074;116.75634;590.21063
125.34301;116.78848;590.20715
125.30263;116.76478;590.2034
125.256134;116.6198;590.2003
125.21763;116.36755;590.2018
125.19352;116.07849;590.202
125.17681;115.76626;590.1982
125.163765;115.48018;590.1939
125.13764;115.23437;590.20135
125.09325;115.05019;590.19214
125.061226;114.98546;590.17816
125.085686;115.00601;590.18085
125.13473;115.0522;590.183
125.16241;115.0747;590.1805
125.17349;115.1041;590.1765
125.18184;115.14537;590.1544
125.18401;115.171906;590.15546
125.17204;115.1803;590.15594
125.15919;115.18566;590.16144
125.14922;115.18917;590.15485
125.14626;115.19215;590.14777
125.13843;115.20002;590.1403
125.12509;115.19846;590.12964
125.12078;115.19751;590.12756
125.12059;115.193;590.122
125.11634;115.18154;590.11914
125.10845;115.16468;590.11536
125.10156;115.15224;590.1131
125.0963;115.143654;590.11304
125.09631;115.14323;590.1089
125.10488;115.150955;590.1053
125.10838;115.15758;590.10016
125.10922;115.1612;590.0989
125.106735;115.15472;590.09973
125.10042;115.14692;590.1139
125.10466;115.14902;590.1108
125.11055;115.15152;590.08856
125.10864;115.15205;590.10645
125.106766;115.15397;590.11774
125.10819;115.15586;590.075
125.11012;115.16402;590.0676
125.1106;115.16606;590.0624
125.10513;115.15484;590.0651
125.097916;115.14542;590.06256
125.09091;115.13679;590.05554
125.086876;115.13188;590.0503
125.089264;115.14011;590.04297
125.09344;115.15078;590.04034
125.091545;115.1555;590.03546
125.09413;115.16022;590.02954
125.09587;115.15831;590.0263
125.09713;115.15843;590.0205
125.095695;115.15807;590.01447
125.08996;115.15288;590.013
125.092026;115.1561;590.01276
125.099655;115.16366;590.0116
125.10442;115.173996;590.0156
125.110504;115.18087;590.02155
125.10745;115.17766;590.0068
125.10159;115.16916;589.9969
125.09334;115.160965;589.9968
125.0895;115.16175;589.99194
125.08914;115.16461;589.98553
125.09022;115.17231;589.97675
125.09226;115.17658;589.9772
125.09846;115.188354;589.9681
125.105576;115.195076;589.9671
125.10197;115.18776;589.9613
125.096725;115.18602;589.9558
125.103516;115.19108;589.9484
125.1107;115.19525;589.9417
125.11944;115.20981;589.9396
125.11687;115.21446;589.9356
125.11634;115.21535;589.9302
125.11858;115.22114;589.926
125.117584;115.219536;589.92413
125.116325;115.21868;589.9175
125.117775;115.221596;589.91235
125.12087;115.224335;589.9181
125.12354;115.23163;589.9164
125.12381;115.237976;589.9134
125.13153;115.248505;589.9054
125.13478;115.259094;589.8935
125.132416;115.2585;589.8919
125.127426;115.25392;589.8962
125.13117;115.253235;589.89856
125.13768;115.259575;589.89307
125.150246;115.27228;589.8806
125.16234;115.29157;589.8767
125.17008;115.30744;589.87115
125.17862;115.3186;589.872
125.18417;115.3244;589.8696
125.18386;115.32454;589.8611
125.18083;115.32163;589.8589
125.17652;115.31619;589.85626
125.17192;115.31519;589.85315
125.17845;115.326614;589.8517
125.18513;115.335915;589.84924
125.19006;115.346;589.84814
125.19297;115.355606;589.8477
125.187675;115.34848;589.8507
125.18756;115.347496;589.85144
125.18756;115.34409;589.85315
125.19069;115.35087;589.85974
125.1981;115.36197;589.8652
125.203606;115.37761;589.8612
125.20716;115.38689;589.8684
125.20813;115.39485;589.87714
125.20447;115.39082;589.88544
125.202965;115.38896;589.89386
125.20329;115.388916;589.90576
125.20885;115.39623;589.92053
125.217766;115.41049;589.9375
125.228874;115.42921;589.9491
125.2387;115.44673;589.96277
125.25186;115.46914;589.98035
125.259514;115.483376;589.99756
125.26152;115.486404;590.01624
125.26438;115.4911;590.0351
125.276794;115.50311;590.0556
125.28441;115.51247;590.07715
125.293396;115.52684;590.0993
125.30135;115.53833;590.12103
125.3097;115.55499;590.14343
125.317665;115.57374;590.1669
125.32119;115.57726;590.18854
125.32027;115.57462;590.20917
125.32222;115.57896;590.2318
125.32749;115.58945;590.25433
125.3278;115.59545;590.2757
125.33255;115.60533;590.2969
125.339005;115.61798;590.3142
125.34992;115.63067;590.34045
125.35786;115.640015;590.36206
125.36249;115.64486;590.3786
125.36244;115.649574;590.39575
125.36232;115.64993;590.41394
125.3606;115.6532;590.4339
125.3637;115.66362;590.4511
125.3663;115.67299;590.46844
125.369385;115.67871;590.4836
125.36893;115.67799;590.49945
125.36116;115.6681;590.51215
125.35426;115.66197;590.52545
125.3504;115.65756;590.53827
125.3504;115.656944;590.5502
125.35178;115.661736;590.5619
125.34513;115.655655;590.5696
125.33877;115.65065;590.5799
125.33178;115.64164;590.5885
125.31607;115.62163;590.596
125.30374;115.603676;590.6074
125.297;115.58275;590.6146
125.2924;115.567085;590.62427
125.290504;115.56158;590.6273
125.28799;115.55729;590.6288
125.28441;115.54808;590.6391
125.28156;115.53547;590.6398
125.271515;115.515205;590.6451
125.257225;115.48607;590.6469
125.24972;115.466736;590.648
125.241684;115.44893;590.6549
125.2319;115.42973;590.6655
125.22337;115.41771;590.6679
125.215485;115.40205;590.6644
125.208015;115.387344;590.65704
125.2006;115.36863;590.6533
125.19548;115.3491;590.6518
125.18565;115.32604;590.6417
125.18036;115.30513;590.64795
125.17783;115.28784;590.65643
125.173546;115.27984;590.64966
125.170494;115.272255;590.64
125.169914;115.26701;590.64465
125.17066;115.26035;590.63525
125.16133;115.24179;590.63403
125.15544;115.225784;590.6368
125.15113;115.21015;590.63654
125.14257;115.19789;590.6436
125.14348;115.19539;590.62775
125.1502;115.197105;590.63245
125.15461;115.19234;590.642
125.156204;115.19108;590.62476
125.15186;115.18207;590.6208
125.14889;115.17243;590.6222
125.148964;115.168785;590.61584
125.147865;115.16366;590.61444
125.15254;115.164085;590.61273
125.16186;115.1736;590.61
125.16245;115.17367;590.6106
125.166626;115.17551;590.61127
125.17004;115.17636;590.6063
125.16622;115.168755;590.59894
125.16043;115.15879;590.6
125.15638;115.14942;590.59827
125.15673;115.14685;590.59814
125.16317;115.156456;590.5984
125.15997;115.154785;590.5986
125.1575;115.151566;590.5979
125.15507;115.15111;590.596
125.147934;115.14079;590.59686
125.14381;115.1334;590.6011
125.13964;115.12541;590.6072
125.135345;115.12163;590.60364
125.13384;115.12503;590.61505
125.135086;115.12713;590.61163
125.13921;115.13209;590.6078
125.14107;115.13379;590.59875
125.13759;115.13018;590.60486
125.13427;115.126175;590.6085
125.13244;115.122246;590.614
125.13034;115.11788;590.6076
125.13821;115.128845;590.6089
125.14629;115.13719;590.6147
125.15056;115.14041;590.6119
125.15425;115.14682;590.6078
125.16014;115.150734;590.61035
125.156685;115.144585;590.6121
125.156685;115.13953;590.61163
125.16241;115.14387;590.61554
125.16792;115.150665;590.6209
125.1674;115.152115;590.6326
125.16682;115.154976;590.64386
125.16644;115.15901;590.62006
125.16704;115.16275;590.6167
125.16271;115.15743;590.6131
125.15978;115.15337;590.617
125.1558;115.14646;590.62067
125.15234;115.14027;590.62885
125.156425;115.145706;590.6241
125.1563;115.15288;590.61505
125.16053;115.1617;590.6129
125.16751;115.166756;590.6063
125.164505;115.16395;590.6039
125.15609;115.15226;590.6034
125.15113;115.14268;590.6017
125.14689;115.14001;590.597
125.14293;115.13941;590.5947
125.14042;115.136955;590.5931
125.13785;115.13975;590.59015
125.13844;115.14496;590.5857
125.14083;115.141815;590.5821
125.13606;115.1309;590.581
125.13311;115.125275;590.5793
125.129005;115.121864;590.5772
125.12993;115.11988;590.5756
125.13351;115.12634;590.58124
125.132484;115.12985;590.5812
125.134544;115.13295;590.56915
125.13785;115.13464;590.56537
125.132126;115.12522;590.56366
125.12991;115.11492;590.562
125.13279;115.11466;590.5531
125.129814;115.11151;590.5481
125.13053;115.11633;590.5466
125.13034;115.11516;590.54535
125.13475;115.114716;590.5445
125.13628;115.11824;590.5388
125.1312;115.115875;590.53723
125.12617;115.10729;590.5379
125.12669;115.0977;590.5379
125.12647;115.09356;590.5366
125.129456;115.09695;590.534
125.13432;115.10625;590.5333
125.14088;115.11545;590.5331
125.15048;115.12779;590.5267
125.15127;115.12851;590.5244
125.14484;115.1174;590.524
125.13969;115.10453;590.52405
125.141594;115.10257;590.52435
125.146484;115.10341;590.5267
125.15156;115.11061;590.5413
125.15507;115.11817;590.5563
125.15626;115.12105;590.5294
125.16086;115.12059;590.52374
125.15857;115.11581;590.5258
125.16026;115.11664;590.5305
125.15585;115.106674;590.5318
125.14982;115.09792;590.54083
125.14837;115.09957;590.5312
125.14515;115.09928;590.52606
125.144745;115.096565;590.5267
125.14458;115.095825;590.52795
125.14255;115.09108;590.5282
125.13649;115.07899;590.5276
125.131935;115.06993;590.52924
125.1311;115.069145;590.5339
125.12802;115.067764;590.5387
125.12502;115.06686;590.5409
125.128624;115.07415;590.5365
125.13649;115.08272;590.53986
125.1379;115.07986;590.5449
125.13392;115.06901;590.54346
125.12787;115.05937;590.54236
125.120445;115.05097;590.53796
125.11818;115.05177;590.5409
125.1215;115.05761;590.54004
125.12334;115.0547;590.5422
125.128174;115.06342;590.5429
125.13218;115.06829;590.54254
125.124306;115.057106;590.5426
125.11627;115.04576;590.54126
125.11809;115.041466;590.5403
125.11735;115.038605;590.5398
125.12187;115.04626;590.54175
125.1295;115.05506;590.5408
125.13778;115.06746;590.54016
125.14165;115.07205;590.54004
125.13897;115.06774;590.53876
125.12886;115.05679;590.5387
125.12767;115.04998;590.53766
125.12562;115.04629;590.53796
125.123184;115.042915;590.5381
125.12354;115.042015;590.5359
125.11973;115.042015;590.533
125.11646;115.03822;590.53076
125.10614;115.02871;590.5306
125.09548;115.016914;590.5312
125.089806;115.00971;590.53094
125.08921;115.00572;590.5436
125.08972;115.00535;590.5575
125.09105;115.00797;590.5618
125.08948;115.002625;590.5572
125.0895;115.00542;590.54254
125.09413;115.01024;590.5246
125.09415;115.010185;590.5278
125.08701;115.00344;590.5362
125.08468;114.996185;590.5248
125.08523;114.99522;590.51636
125.091354;115.003136;590.51843
125.10001;115.01574;590.5126
125.10559;115.0267;590.5067
125.10905;115.03093;590.50116
125.10817;115.027405;590.5005
125.10226;115.01715;590.50195
125.093216;115.00582;590.50024
125.089874;115.00082;590.50214
125.08877;115.00189;590.49896
125.08997;115.0069;590.4828
125.08928;115.01064;590.49146
125.08686;115.010666;590.49884
125.08454;115.00649;590.47736
125.07746;114.99683;590.4691
125.07305;114.991875;590.4714
125.0716;114.98934;590.47345
125.07062;114.98493;590.46704
125.07076;114.9873;590.4589
125.06899;114.990654;590.4602
125.07246;114.99433;590.4537
125.07617;114.99946;590.44977
125.07162;114.99171;590.4428
125.06847;114.98403;590.437
125.06596;114.979546;590.43225
125.067184;114.97926;590.434
125.064125;114.979904;590.43036
125.06198;114.98299;590.4253
125.06566;114.9873;590.42065
125.0724;114.99523;590.4209
125.07507;114.99874;590.4172
125.078415;114.99772;590.4168
125.07925;114.993256;590.4205
125.07836;114.993904;590.40375
125.0793;115.00036;590.4084
125.0849;115.00377;590.4108
125.088684;115.00833;590.40186
125.088066;115.01226;590.399
125.09338;115.01465;590.4114
125.09119;115.00692;590.3994
125.08783;114.997;590.4029
125.0823;114.98813;590.3931
125.08495;114.98604;590.3801
125.08218;114.98704;590.3668
125.08063;114.98842;590.3692
125.08206;114.995544;590.3765
125.08187;114.998695;590.37195
125.0848;114.99559;590.36127
125.0824;114.988556;590.36395
125.07954;114.98527;590.3604
125.081635;114.98684;590.37
125.08736;114.996475;590.3846
125.09048;114.999954;590.3653
125.09174;115.00835;590.34753
125.090096;115.01071;590.3544
125.08497;115.005226;590.3497
125.0823;114.99834;590.3393
125.08385;114.99653;590.3246
125.0879;115.00215;590.32104
125.08528;114.99939;590.32574
125.084755;115.00043;590.32074
125.08443;115.00084;590.3108
125.08408;115.00065;590.3074
125.08056;114.99946;590.30255
125.07307;114.98937;590.3072
125.06816;114.978905;590.30566
125.0631;114.97306;590.31836
125.06189;114.96918;590.31555
125.07133;114.97778;590.3112
125.07617;114.98568;590.28845
125.08611;114.99476;590.2853
125.092384;115.004105;590.2871
125.09043;115.00635;590.289
125.09446;115.00279;590.28156
125.09803;115.00261;590.2786
125.10147;115.009254;590.2724
125.109695;115.019295;590.26685
125.11356;115.022415;590.2683
125.108406;115.02437;590.2718
125.11002;115.02785;590.2614
125.10743;115.02144;590.25433
125.09739;115.00976;590.2582
125.09846;115.00866;590.2602
125.09982;115.00809;590.25195
125.09725;115.008514;590.25
125.10245;115.01865;590.251
125.10936;115.02902;590.25885
125.116035;115.037865;590.24884
125.11305;115.036415;590.24036
125.10531;115.02451;590.2349
125.10054;115.01639;590.2312
125.09908;115.01183;590.23627
125.10042;115.01417;590.2364
125.10364;115.02027;590.232
125.107285;115.02723;590.219
125.11384;115.04058;590.2136
125.1168;115.04528;590.21375
125.10786;115.03047;590.21014
125.1043;115.021324;590.21045
125.102615;115.01376;590.2138
125.10011;115.01128;590.213
125.10523;115.02032;590.2134
125.10934;115.02568;590.2033
125.11108;115.03043;590.18677
125.10798;115.02909;590.18274
125.096054;115.015686;590.18207
125.09825;115.0131;590.17816
125.09369;115.01257;590.17554
125.08726;115.00702;590.1751
125.08721;115.00866;590.1787
125.092;115.01501;590.19196
125.08719;115.01183;590.1874
125.07903;115.00315;590.1722
125.07286;114.98985;590.17914
125.061195;114.97309;590.1955
125.05905;114.95814;590.1881
125.05839;114.943954;590.178
125.054504;114.9348;590.1913
125.064606;114.947075;590.16364
125.07429;114.96072;590.1488
125.078;114.96744;590.1448
125.08022;114.9718;590.1449
125.088806;114.972946;590.15173
125.09153;114.97086;590.15546
125.092;114.971634;590.1515
125.09522;114.97352;590.1553
125.10624;114.9877;590.1635
125.115555;115.006134;590.1359
125.12402;115.0243;590.1261
125.13275;115.03372;590.11725
125.132126;115.02995;590.1183
125.135704;115.02723;590.1183
125.13916;115.02471;590.11646
125.14495;115.0254;590.1162
125.145546;115.0257;590.1143
125.14137;115.02018;590.11444
125.13409;115.0172;590.11304
125.134445;115.02258;590.111
125.12531;115.013306;590.1061
125.117805;115.00351;590.1134
125.117615;115.007324;590.11444
125.11785;115.01466;590.0997
125.12581;115.02236;590.0911
125.13594;115.02749;590.09216
125.13897;115.02836;590.0881
125.138374;115.03176;590.0821
125.14185;115.03157;590.0825
125.133865;115.0207;590.07654
125.13032;115.00916;590.07587
125.12712;115.00008;590.074
125.1215;114.996475;590.08386
125.12259;115.00286;590.07477
125.121826;115.00666;590.0724
125.12812;115.01649;590.06805
125.127884;115.02502;590.06024
125.12271;115.02146;590.0537
125.12179;115.013954;590.0512
125.12596;115.01482;590.04834
125.13098;115.019844;590.0478
125.13318;115.02558;590.0494
125.13182;115.02761;590.0527
125.134796;115.03496;590.0604
125.14078;115.04482;590.03937
125.13935;115.03481;590.0368
125.12473;115.009995;590.04083
125.11062;115;590.03595
125.10815;115.00186;590.0298
125.10852;115.005394;590.01733
125.11146;115.01179;590.0181
125.115585;115.01769;590.03186
125.11334;115.01805;590.02234
125.10752;115.01376;590.00574
125.098206;115.00268;589.99963
125.095955;115.001076;589.9992
125.09405;114.998024;589.9975
125.08928;114.99741;589.9952
125.08701;114.99753;589.99414
125.0905;115.00048;589.99414
125.092834;115.00492;589.98505
125.09369;115.012146;589.9817
125.09262;115.00886;589.9837
125.08504;114.999954;589.9799
125.07901;114.98844;589.97253
125.077934;114.98467;589.97284
125.07927;114.98851;589.973
125.08061;114.99784;589.96643
125.086235;115.00923;589.96643
125.09196;115.01684;589.9661
125.09334;115.01724;589.9635
125.090385;115.01495;589.9504
125.088524;115.01424;589.9424
125.08867;115.008514;589.9422
125.088524;115.00406;589.9398
125.09434;115.01388;589.937
125.095085;115.01672;589.93726
125.089165;115.01621;589.9376
125.088326;115.01572;589.9387
125.08592;115.01143;589.9291
125.0801;115.00799;589.91833
125.07996;115.00933;589.9214
125.07753;115.00739;589.9208
125.07358;115.005486;589.9175
125.070045;115.00489;589.9292
125.0674;115.004364;589.92224
125.06554;115.010185;589.90826
125.052444;115.011856;589.9244
125.02649;114.992714;589.9055
125.00465;114.96662;589.9068
124.98765;114.94409;589.90173
124.9861;114.933655;589.89496
124.984406;114.93866;589.8855
124.98631;114.95606;589.88025
124.99885;114.97676;589.88275
125.02896;114.99397;589.8716
125.06881;115.027405;589.8694
125.13494;115.08283;589.8705
125.20568;115.17;589.8671
125.257416;115.294785;589.8604
125.29957;115.45756;589.8536
125.36123;115.653915;589.84863
125.426865;115.84968;589.8432
125.47456;116.00661;589.8382
125.50362;116.16084;589.8379
125.52364;116.32256;589.8321
125.521706;116.48831;589.8292
125.52576;116.60025;589.824
125.479576;116.676735;589.82025
125.40481;116.74361;589.8187
125.38204;116.79361;589.81915
125.34999;116.76442;589.8177
125.29604;116.572784;589.8132
125.25103;116.283035;589.8044
125.21837;115.96987;589.8027
125.191475;115.65349;589.80225
125.17962;115.39225;589.8019
125.16002;115.18418;589.79846
125.1215;115.05823;589.79596
125.09878;115.040535;589.7904
125.125046;115.061035;589.78656
125.16799;115.085335;589.7838
125.18899;115.08946;589.77985
125.189514;115.09883;589.7763
125.18759;115.12548;589.77386
125.19059;115.15691;589.7742
125.18039;115.17396;589.7775
125.17247;115.18628;589.7708
125.16041;115.19312;589.77057
125.14636;115.18893;589.76685
125.12795;115.17708;589.76196
125.11472;115.16392;589.76044
125.10512;115.15383;589.7672
125.101776;115.15457;589.76556
125.10237;115.15247;589.7624
125.10304;115.15555;589.7512
125.10936;115.16275;589.74457
125.10483;115.15061;589.7526
125.09403;115.1313;589.74396
125.090576;115.12398;589.7335
125.092384;115.12124;589.7346
125.09977;115.12732;589.7271
125.10643;115.13738;589.7213
125.10776;115.14193;589.7214
125.10605;115.141556;589.7186
125.102875;115.138405;589.71265
125.09641;115.12682;589.7131
125.08948;115.11783;589.7198
125.0925;115.11773;589.71606
125.09076;115.11564;589.70447
125.09818;115.127464;589.6958
125.10578;115.135666;589.69904
125.10736;115.13972;589.6977
125.10523;115.13838;589.6937
125.09987;115.12789;589.6922
125.09512;115.121475;589.69476
125.0987;115.12129;589.6924
125.09994;115.12601;589.69977
125.10176;115.13159;589.6886
125.103584;115.14041;589.689
125.10726;115.14988;589.67255
125.10667;115.15054;589.665
125.099396;115.14084;589.66046
125.09291;115.13397;589.6563
125.093506;115.13433;589.6529
125.09453;115.13488;589.64954
125.10173;115.144226;589.6442
125.10326;115.14985;589.63965
125.10478;115.155525;589.63635
125.110855;115.164635;589.6324
125.11275;115.16551;589.6285
125.116325;115.16332;589.6268
125.12235;115.16577;589.62415
125.119286;115.16728;589.6184
125.117226;115.17122;589.61694
125.11985;115.17713;589.614
125.120255;115.17837;589.6142
125.12426;115.18356;589.61237
125.121346;115.18667;589.6064
125.11913;115.18197;589.6089
125.118706;115.17849;589.5999
125.11685;115.173096;589.601
125.11587;115.17455;589.601
125.11789;115.18215;589.59436
125.120155;115.18852;589.58936
125.125786;115.197395;589.58167
125.129265;115.210526;589.5759
125.13077;115.210556;589.57086
125.135826;115.212845;589.5711
125.136536;115.21361;589.5662
125.13029;115.20938;589.5596
125.1287;115.21105;589.55804
125.13511;115.21987;589.5547
125.13904;115.23261;589.5527
125.148796;115.244385;589.5481
125.15738;115.25478;589.5506
125.157684;115.25325;589.549
125.155014;115.24901;589.5384
125.15337;115.24555;589.5473
125.15711;115.25051;589.5461
125.161125;115.26071;589.5334
125.161385;115.26524;589.5377
125.16212;115.26945;589.5334
125.162766;115.27316;589.53076
125.160545;115.27464;589.5188
125.16322;115.27524;589.52026
125.167725;115.27786;589.52234
125.17294;115.28188;589.52734
125.17905;115.29336;589.52783
125.18711;115.30588;589.5289
125.19624;115.320724;589.5327
125.20084;115.33115;589.51874
125.20239;115.33258;589.5145
125.205795;115.33033;589.5159
125.210495;115.33427;589.5208
125.21276;115.339424;589.52545
125.21413;115.34618;589.52844
125.22342;115.36169;589.53644
125.23483;115.37897;589.5473
125.23832;115.39051;589.5566
125.24025;115.400734;589.5616
125.2435;115.40198;589.5718
125.24633;115.406845;589.5868
125.24723;115.408295;589.60205
125.25067;115.41609;589.61755
125.25324;115.42803;589.63513
125.25527;115.43481;589.6518
125.26278;115.4477;589.66815
125.27096;115.4593;589.68445
125.27046;115.458466;589.7033
125.26905;115.45834;589.7262
125.26791;115.45932;589.7461
125.267075;115.46123;589.7654
125.274155;115.4782;589.7856
125.27573;115.48791;589.8061
125.27652;115.49472;589.8276
125.28192;115.50211;589.84955
125.278755;115.499756;589.87225
125.27768;115.49682;589.89294
125.277596;115.49799;589.9122
125.28276;115.50373;589.9308
125.29456;115.51878;589.9545
125.304436;115.53493;589.9744
125.31268;115.547485;589.99493
125.31642;115.556305;590.015
125.31426;115.556694;590.03357
125.30704;115.54961;590.0522
125.30767;115.54839;590.06915
125.3046;115.54727;590.0853
125.302505;115.547104;590.10205
125.29938;115.54974;590.1162
125.30212;115.55885;590.1318
125.3041;115.566414;590.14465
125.29948;115.56434;590.158
125.28892;115.55295;590.1709
125.28347;115.54687;590.183
125.2753;115.53728;590.19495
125.27418;115.530174;590.20306
125.27393;115.52929;590.21356
125.267975;115.523285;590.2225
125.26278;115.51993;590.2312
125.260735;115.51742;590.23834
125.25506;115.50111;590.2452
125.24604;115.48292;590.2506
125.23472;115.46187;590.25336
125.224686;115.44434;590.2593
125.22121;115.435745;590.26227
125.21663;115.42553;590.26685
125.2077;115.41257;590.2685
125.20089;115.399185;590.2707
125.19447;115.38455;590.27216
125.18739;115.36292;590.2726
125.17468;115.33901;590.27386
125.16005;115.314476;590.2751
125.154015;115.29724;590.2776
125.15447;115.28813;590.2805
125.15481;115.281815;590.2833
125.15728;115.275856;590.27576
125.150894;115.26024;590.2718
125.14129;115.240326;590.2726
125.13235;115.22216;590.27515
125.12693;115.20302;590.2719
125.12288;115.185524;590.2726
125.123856;115.17911;590.273
125.138115;115.186356;590.26666
125.14432;115.18852;590.2666
125.14727;115.184044;590.25354
125.14531;115.17636;590.2537
125.141495;115.16182;590.2501
125.13606;115.14479;590.24664
125.13058;115.13154;590.247
125.13339;115.12856;590.24365
125.13456;115.12744;590.2408
125.13406;115.12386;590.23956
125.1379;115.124794;590.2358
125.137115;115.12026;590.2308
125.1307;115.10822;590.22864
125.127716;115.09802;590.2278
125.1239;115.0928;590.22546
125.12116;115.08634;590.2259
125.11961;115.08069;590.22266
125.12262;115.081116;590.21826
125.12812;115.085335;590.21643
125.130104;115.09525;590.216
125.127785;115.091484;590.21814
125.12032;115.07904;590.2276
125.12424;115.08312;590.2206
125.12986;115.08686;590.2176
125.13177;115.09087;590.2272
125.13218;115.09213;590.22565
125.13609;115.09707;590.21686
125.135376;115.10114;590.2209
125.13098;115.09604;590.2181
125.1235;115.08045;590.2162
125.11489;115.06728;590.2047
125.10689;115.06011;590.20605
125.11305;115.0645;590.20764
125.123184;115.07752;590.2109
125.128365;115.087654;590.2058
125.13499;115.09733;590.20526
125.13635;115.09943;590.20526
125.13139;115.093346;590.2044
125.12252;115.08214;590.2064
125.11634;115.07609;590.2098
125.11551;115.07756;590.21063
125.11562;115.08207;590.21173
125.11765;115.08507;590.20715
125.11952;115.08936;590.20795
125.12095;115.093056;590.20953
125.12004;115.09084;590.20734
125.12324;115.08958;590.2089
125.12402;115.08905;590.2115
125.12479;115.087364;590.2107
125.124565;115.09242;590.21356
125.125404;115.09614;590.22076
125.12538;115.09798;590.21704
125.12419;115.09755;590.2126
125.11887;115.08836;590.2079
125.11561;115.082855;590.21173
125.11179;115.07735;590.211
125.10559;115.06929;590.20703
125.09982;115.067406;590.2069
125.09706;115.07032;590.21246
125.09999;115.07349;590.2089
125.10541;115.076775;590.2056
125.10374;115.07439;590.2048
125.0975;115.06417;590.2041
125.09379;115.05496;590.20685
125.09214;115.046;590.2013
125.09496;115.04934;590.19495
125.09846;115.05422;590.19775
125.10161;115.061874;590.195
125.10478;115.06754;590.1896
125.103546;115.06664;590.181
125.10025;115.059204;590.1786
125.099014;115.0587;590.1786
125.10192;115.059586;590.1758
125.10513;115.06543;590.1732
125.109955;115.07296;590.17224
125.117226;115.08016;590.1673
125.12032;115.081116;590.1627
125.12324;115.08762;590.1598
125.12102;115.084145;590.1551
125.11675;115.076294;590.1527
125.10936;115.064766;590.152
125.10844;115.058754;590.1499
125.10548;115.06146;590.14966
125.10418;115.06294;590.15106
125.10626;115.060326;590.1475
125.11222;115.062164;590.14386
125.106186;115.05813;590.1411
125.103226;115.051384;590.1411
125.099396;115.04659;590.1386
125.09844;115.0404;590.13794
125.10054;115.04199;590.13983
125.10166;115.04755;590.14026
125.10576;115.05389;590.13696
125.1113;115.06175;590.139
125.11753;115.06228;590.1437
125.11971;115.05806;590.1486
125.11753;115.05411;590.15674
125.11399;115.04362;590.1422
125.1146;115.0412;590.1366
125.11229;115.04666;590.13885
125.11745;115.056656;590.1339
125.12498;115.06421;590.1374
125.121925;115.06168;590.13525
125.11789;115.052124;590.137
125.11222;115.04648;590.14044
125.10368;115.035645;590.1417
125.10082;115.03074;590.1445
125.10052;115.02676;590.14465
125.09703;115.02621;590.1458
125.09143;115.025444;590.14685
125.09329;115.029396;590.1484
125.0895;115.02287;590.1466
125.08118;115.0093;590.1499
125.08096;115.00368;590.152
125.07789;115.00072;590.1518
125.07652;114.99975;590.16
125.075294;114.999695;590.15656
125.07453;114.99762;590.16064
125.07727;114.997856;590.1581
125.07145;114.99581;590.1544
125.06082;114.98174;590.15894
125.049545;114.96645;590.1636
125.05028;114.9667;590.1654
125.05774;114.972946;590.17114
125.06187;114.98127;590.1761
125.06797;114.99092;590.178
125.073746;115.00008;590.1634
125.07756;115.0048;590.1625
125.08161;115.00243;590.1653
125.076645;114.99297;590.1645
125.06847;114.98651;590.1627
125.06888;114.98482;590.16797
125.07438;114.98861;590.1697
125.07655;114.99101;590.17645
125.08463;115.00201;590.18634
125.09301;115.01257;590.1773
125.09667;115.015976;590.1619
125.09742;115.01104;590.16296
125.09572;115.00565;590.1632
125.094696;114.99929;590.16693
125.09768;115.00442;590.16486
125.100845;115.01245;590.16095
125.100464;115.01584;590.1548
125.10245;115.02287;590.1513
125.10426;115.02587;590.1525
125.10056;115.01768;590.15027
125.09999;115.010735;590.1479
125.09863;115.00506;590.1475
125.098206;115.00572;590.1439
125.09953;115.01136;590.1428
125.10275;115.01817;590.14307
125.10393;115.02015;590.139
125.101494;115.022125;590.13745
125.099655;115.01846;590.1356
125.097626;115.01049;590.1333
125.099464;115.0072;590.13293
125.09768;115.00608;590.1286
125.098305;115.01493;590.12524
125.10249;115.02025;590.1226
125.10347;115.022705;590.1215
125.10314;115.02716;590.1209
125.10454;115.02749;590.1173
125.10202;115.019844;590.1176
125.09989;115.01603;590.1194
125.0997;115.01107;590.131
125.101944;115.01751;590.1293
125.10338;115.02621;590.1198
125.10907;115.03258;590.1216
125.10929;115.03546;590.10333
125.11276;115.039085;590.095
125.110146;115.032906;590.09064
125.10495;115.025375;590.0843
125.10009;115.022484;590.08154
125.09723;115.01705;590.0769
125.09611;115.020386;590.07416
125.09863;115.0264;590.0765
125.10781;115.03648;590.0829
125.11782;115.04898;590.0851
125.11424;115.046135;590.0641
125.10953;115.03653;590.0601
125.10552;115.029686;590.05994
125.100464;115.02432;590.0583
125.10052;115.02521;590.05804
125.10493;115.02718;590.05524
125.10788;115.02699;590.0509
125.10736;115.03574;590.04315
125.11082;115.03806;590.03766
125.11365;115.036125;590.0364
125.11396;115.036224;590.03503
125.1162;115.03992;590.03046
125.118416;115.042946;590.0265
125.12877;115.05549;590.02936
125.13522;115.063095;590.03
125.13744;115.066216;590.0264
125.13923;115.070076;590.0241
125.13816;115.066025;590.0317
125.133675;115.05584;590.01434
125.13208;115.05133;590.00635
125.12683;115.05046;590.0072
125.13303;115.05763;590.00934
125.13053;115.05639;590.015
125.13027;115.06164;589.99774
125.13015;115.064644;589.9934
125.12509;115.05827;589.99554
125.126076;115.04859;590.0057
125.12116;115.0391;590.01605
125.123;115.041916;590.0027
125.12932;115.05038;589.9953
125.13577;115.056984;589.985
125.138596;115.05932;589.98096
125.14679;115.06693;589.9724
125.15044;115.073265;589.97284
125.14839;115.06793;589.9769
125.14626;115.066284;589.9742
125.144714;115.06359;589.97314
125.14734;115.06641;589.97003
125.153946;115.07272;589.9597
125.15803;115.07902;589.9568
125.15821;115.08343;589.9567
125.16014;115.0871;589.9492
